  7.9007306e-002
  7.5755077e-002
  8.2486316e-002
  8.0196996e-002
  8.1907686e-002
  7.9618390e-002
  7.7345496e-002
  6.9113518e-002
  7.5885423e-002
  7.7620236e-002
  8.0334498e-002
  6.9081547e-002
  4.2980044e-002
  4.8959734e-002
  6.3852337e-002
  9.0572192e-002
  1.0412410e-001
  9.3660330e-002
  8.8258766e-002
  9.6841332e-002
  9.2404001e-002
  9.1983726e-002
  9.5547671e-002
  8.4140963e-002
  8.3779872e-002
  8.3419155e-002
  7.2103873e-002
  6.0878904e-002
  5.5719302e-002
  5.3587934e-002
  6.7406860e-002
  6.3184476e-002
  4.5052036e-002
  3.7025560e-002
  3.0059554e-002
  2.5141484e-002
  2.2254768e-002
  2.1382895e-002
  1.7529899e-002
  2.0679318e-002
  1.8822950e-002
  1.8973108e-002
  1.6133862e-002
  1.9292880e-002
  2.1429687e-002
  2.0560759e-002
  2.4677929e-002
  1.9797638e-002
  1.3960840e-002
  1.7134586e-002
  1.2314737e-002
 -1.1388135e-002
 -7.0113742e-003
  1.4260358e-002
  9.4643572e-003
 -5.2516323e-003
 -6.9002282e-003
 -1.3514478e-002
 -5.1354861e-003
 -9.7714192e-003
 -3.5282944e-002
 -1.9752497e-002
 -1.9286757e-002
 -1.0856786e-002
  1.4884046e-003
  1.4728681e-002
  1.8897241e-002
 -8.7044268e-004
  1.2388501e-002
  1.4583845e-002
  2.0744523e-002
  3.6813330e-002
  2.0880761e-002
  6.0738069e-003
 -4.6285281e-003
 -1.0263540e-002
 -1.3860179e-002
 -9.4595677e-003
  4.8645714e-003
  1.3096165e-002
  7.3175187e-003
 -2.3975940e-003
 -5.0617225e-003
  2.6347914e-004
  1.5504321e-002
  9.7062067e-003
 -6.0037190e-003
  4.3086413e-003
  1.3540789e-002
  1.3734014e-002
  1.6913054e-002
  1.2098449e-002
  1.4294269e-002
  1.4479990e-002
  5.7007124e-003
  7.9481000e-003
  7.1892729e-003
 -2.5265882e-003
 -1.2078525e-003
 -8.9562556e-004
 -1.2536630e-002
 -1.6114673e-002
 -2.7630014e-002
 -4.2037853e-002
 -4.6367308e-002
 -5.4643279e-002
 -6.1853702e-002
 -7.0994752e-002
 -8.1054429e-002
 -9.5012591e-002
 -9.8894237e-002
 -1.0672426e-001
 -1.1747422e-001
 -1.3012395e-001
 -1.3868207e-001
 -1.3222680e-001
 -1.2980325e-001
 -1.1843179e-001
 -1.0216956e-001
 -7.4085759e-002
 -5.9175559e-002
 -3.5421872e-002
 -1.9018916e-003
  2.7360761e-002
  7.0326176e-002
  1.0596690e-001
  1.4928017e-001
  1.8725504e-001
  2.1694617e-001
  2.5634652e-001
  3.0338358e-001
  3.3608342e-001
  3.7945973e-001
  4.3840325e-001
  4.6199362e-001
  4.8736747e-001
  5.1450934e-001
  5.2348575e-001
  5.2938343e-001
  5.1629284e-001
  5.1524265e-001
  5.3011801e-001
  5.3190698e-001
  5.2768778e-001
  5.2448094e-001
  5.0036837e-001
  4.5253405e-001
  3.9611205e-001
  3.4511708e-001
  3.0747368e-001
  2.7709852e-001
  2.7982665e-001
  2.8351841e-001
  2.7123539e-001
  2.6203077e-001
  2.5986327e-001
  2.3878192e-001
  1.9794614e-001
  2.2416241e-001
  2.2525848e-001
  1.8650113e-001
  1.8888566e-001
  1.7929272e-001
  1.4089017e-001
  1.3566087e-001
  1.3146483e-001
  8.6465786e-002
  8.7642454e-002
  7.1875331e-002
  5.8225637e-002
  5.7631452e-002
  4.3096651e-002
  1.5731596e-002
 -3.1329228e-002
 -6.2070680e-002
 -1.0550636e-001
 -1.2667438e-001
 -1.5563320e-001
 -1.6941235e-001
 -1.7809451e-001
 -2.1060224e-001
 -2.2690350e-001
 -2.5800324e-001
 -2.8684905e-001
 -2.8955668e-001
 -2.9820863e-001
 -3.0678057e-001
 -3.2324007e-001
 -3.5050979e-001
 -3.5663146e-001
 -3.7265080e-001
 -3.7259279e-001
 -3.7152743e-001
 -3.9336465e-001
 -4.0903522e-001
 -4.2058081e-001
 -4.2305521e-001
 -4.3445873e-001
 -4.3977941e-001
 -4.2910771e-001
 -4.1452557e-001
 -4.1299576e-001
 -4.2142389e-001
 -4.0785930e-001
 -3.8542898e-001
 -3.6117745e-001
 -3.4507943e-001
 -3.3009743e-001
 -3.1024740e-001
 -2.8059025e-001
 -2.5514979e-001
 -2.4185960e-001
 -2.0775595e-001
 -1.8886266e-001
 -1.8903962e-001
 -1.8124148e-001
 -1.5358286e-001
 -1.1419427e-001
 -9.9025457e-002
 -1.0489120e-001
 -9.5766776e-002
 -6.4803723e-002
 -6.7952227e-002
 -6.2109429e-002
 -2.3447340e-002
 -1.4977513e-002
 -1.1555791e-002
  1.4744286e-002
  1.0951892e-002
  2.2107740e-003
  3.5369160e-002
  2.9415173e-002
  9.5663778e-003
  2.9715840e-002
  2.3806219e-002
  1.8940166e-002
  1.6105212e-002
  4.3299060e-003
  2.7507499e-002
  3.9539875e-002
  2.2591479e-002
  3.3666332e-002
  5.7596391e-002
  3.5517428e-002
  1.0630200e-002
  3.0761879e-002
  4.8736248e-002
  4.6644070e-002
  4.9547066e-002
  5.3420679e-002
  5.3277320e-002
  4.0186699e-002
  2.9193661e-002
  4.1195400e-002
  4.6126399e-002
  4.1056586e-002
  3.8018737e-002
  2.0065974e-002
  3.1140603e-002
  5.5070467e-002
  3.0999532e-002
  2.1067077e-002
  2.3166032e-002
  1.4292173e-002
  2.2420811e-002
  4.5420856e-002
  6.4247778e-002
  5.3041561e-002
  4.4912944e-002
  4.6808360e-002
  5.2670364e-002
  4.2548252e-002
  4.0474731e-002
  4.8375870e-002
  3.8284546e-002
  3.3253982e-002
  3.5234776e-002
  3.1222786e-002
  3.5209792e-002
  2.3228569e-002
  2.1303567e-002
  5.3254320e-002
  4.4110013e-002
  4.0018504e-002
  4.5918134e-002
  3.9817135e-002
  4.3723704e-002
  5.1580464e-002
  5.6383526e-002
  4.1227326e-002
  5.1091220e-002
  4.7925972e-002
  3.9805436e-002
  5.0672085e-002
  3.5554648e-002
  3.7489927e-002
  3.9408073e-002
  3.7325542e-002
  4.2230051e-002
  4.4105270e-002
  4.4967707e-002
  4.7813319e-002
  5.3621698e-002
  5.5397094e-002
  6.1139647e-002
  5.0898649e-002
  3.8747769e-002
  3.4662063e-002
  3.0608495e-002
  2.5591034e-002
  1.4638205e-002
  3.5643243e-002
  5.7471144e-002
  7.6130829e-002
  6.1770457e-002
  4.2545774e-002
  6.1321048e-002
  5.4047129e-002
  4.5834820e-002
  3.9679776e-002
  4.4528514e-002
  5.0331865e-002
  3.8159654e-002
  3.6044555e-002
  7.1789715e-002
  8.4334266e-002
  6.8887943e-002
  7.7467099e-002
  7.6014288e-002
  6.4611569e-002
  6.2262838e-002
  6.9890049e-002
  7.1476920e-002
  8.6990849e-002
  8.3452623e-002
  6.7989444e-002
  5.8625587e-002
  4.8340170e-002
  5.5067332e-002
  5.4766065e-002
  6.3428294e-002
  7.3013211e-002
  8.3512944e-002
  8.1972907e-002
  7.3471096e-002
  9.0929532e-002
  9.9278745e-002
  9.9588826e-002
  9.1925482e-002
  7.8345958e-002
  8.9772087e-002
  9.6121926e-002
  9.4449045e-002
  9.7765833e-002
  1.0005595e-001
  1.0630723e-001
  1.0851983e-001
  1.0971441e-001
  1.1687055e-001
  1.1599663e-001
  1.1711734e-001
  1.2519585e-001
  1.2822415e-001
  1.3122294e-001
  1.4713908e-001
  1.5296065e-001
  1.2486827e-001
  1.2588208e-001
  1.3684191e-001
  1.3874388e-001
  1.4759643e-001
  1.4242845e-001
  1.4526461e-001
  1.4608033e-001
  1.4887570e-001
  1.4467129e-001
  1.4547530e-001
  1.4726314e-001
  1.3508813e-001
  1.4093375e-001
  1.4672618e-001
  1.5744517e-001
  1.5213609e-001
  1.7176221e-001
  2.1611898e-001
  2.0632631e-001
  1.7071254e-001
  1.4833019e-001
  1.4803495e-001
  1.7064215e-001
  1.9704160e-001
  1.8935705e-001
  1.8272404e-001
  1.7713417e-001
  1.7158319e-001
  1.7005456e-001
  1.6952772e-001
  1.7198629e-001
  1.7441806e-001
  1.7582724e-001
  1.7323442e-001
  1.9156998e-001
  1.9182195e-001
  2.0202344e-001
  1.9918697e-001
  1.8441512e-001
  1.7573220e-001
  1.6213378e-001
  1.7752121e-001
  1.7982902e-001
  1.8310671e-001
  1.8535440e-001
  1.8558454e-001
  1.7783816e-001
  1.5222168e-001
  1.4473460e-001
  1.5124530e-001
  1.4574562e-001
  1.5721512e-001
  1.9248601e-001
  1.8364103e-001
  1.7585681e-001
  1.9999795e-001
  1.9704427e-001
  1.8414775e-001
  1.6836141e-001
  1.4871350e-001
  1.4913792e-001
  1.5951149e-001
  1.5684673e-001
  1.4822164e-001
  1.5758690e-001
  1.5690982e-001
  1.4627248e-001
  1.3870343e-001
  1.1127202e-001
  1.0497362e-001
  1.1963564e-001
  1.2421319e-001
  1.2675579e-001
  1.3325541e-001
  1.3372041e-001
  1.2222469e-001
  1.2077630e-001
  1.1634637e-001
  1.1194713e-001
  1.1255799e-001
  1.0718301e-001
  1.0782214e-001
  1.1343028e-001
  1.0305262e-001
  6.3873456e-002
  7.0822339e-002
  9.0657077e-002
  7.0488745e-002
  6.3427965e-002
  5.1441535e-002
  4.4529159e-002
  4.9620905e-002
  4.6700377e-002
  4.1808598e-002
  4.4920880e-002
  4.0037212e-002
  3.9173972e-002
  3.9310601e-002
  3.7451204e-002
  3.8591676e-002
  3.6732025e-002
  2.0941895e-002
  1.7229200e-002
  2.6491224e-002
  1.5756749e-002
  7.0995018e-003
  1.1457727e-002
  5.8190785e-003
 -2.4673081e-002
 -3.4002962e-002
 -6.4088095e-003
  4.0277664e-003
  2.4262083e-003
  1.9758004e-002
 -7.8700639e-003
 -3.7265630e-002
 -2.3597588e-002
 -9.0464338e-003
  3.3924139e-003
 -2.2116729e-002
  9.3481002e-003
  2.4619066e-002
 -1.9991715e-002
 -3.4361833e-002
 -4.2639735e-002
 -4.1887240e-002
 -4.2137241e-002
 -3.5414301e-002
 -4.2689632e-002
 -4.2934565e-002
 -3.4214762e-002
 -3.1542363e-002
 -4.4827053e-002
 -5.8999367e-002
 -5.1145786e-002
 -5.4311472e-002
 -4.2512729e-002
 -3.8778082e-002
 -4.4037630e-002
 -4.0291393e-002
 -3.9563969e-002
 -5.2785641e-002
 -6.0919749e-002
 -5.7036286e-002
 -5.8163996e-002
 -5.1315120e-002
 -6.1452693e-002
 -6.6527614e-002
 -6.8572906e-002
 -7.4584595e-002
 -7.8554623e-002
 -8.3487257e-002
 -7.7423612e-002
 -6.0453790e-002
 -6.5532347e-002
 -7.4552578e-002
 -7.0551590e-002
 -7.4549947e-002
 -7.8514883e-002
 -6.6512073e-002
 -5.2615117e-002
 -7.2692498e-002
 -9.0613240e-002
 -7.8509065e-002
 -8.0445613e-002
 -8.1369467e-002
 -7.0333929e-002
 -1.0121594e-001
 -1.2288067e-001
 -1.1946828e-001
 -1.1508558e-001
 -1.2169150e-001
 -1.1529428e-001
 -9.2016815e-002
 -8.1875007e-002
 -9.0737216e-002
 -9.8529695e-002
 -9.3310076e-002
 -1.1103745e-001
 -1.0670793e-001
 -9.6436453e-002
 -1.1014905e-001
 -9.6858070e-002
 -7.4711001e-002
 -9.6563881e-002
 -1.1624467e-001
 -1.0986876e-001
 -9.7567475e-002
 -1.0129954e-001
 -1.1595423e-001
 -1.1754005e-001
 -1.0317608e-001
 -1.0685392e-001
 -1.1448328e-001
 -1.1408074e-001
 -1.1168741e-001
 -1.1130324e-001
 -1.1390773e-001
 -8.6611507e-002
 -8.1446948e-002
 -9.6241468e-002
 -9.8962464e-002
 -1.0663891e-001
 -1.0927100e-001
 -1.1088348e-001
 -1.0849692e-001
 -1.1409494e-001
 -1.1765302e-001
 -1.1620000e-001
 -1.1874002e-001
 -1.1926492e-001
 -1.0484441e-001
 -9.8506935e-002
 -1.0815385e-001
 -1.0776063e-001
 -1.0438071e-001
 -1.0401403e-001
 -1.1061957e-001
 -1.0820564e-001
 -9.8837870e-002
 -9.3528355e-002
 -8.1289147e-002
 -8.4087189e-002
 -9.8811729e-002
 -8.3536803e-002
 -9.4278794e-002
 -1.1887378e-001
 -1.1737153e-001
 -1.0691581e-001
 -9.7539191e-002
 -1.1811438e-001
 -1.0963747e-001
 -1.0819881e-001
 -1.1075317e-001
 -1.0631288e-001
 -1.2082876e-001
 -9.8374728e-002
 -1.0099982e-001
 -1.1953576e-001
 -1.1999111e-001
 -1.0350957e-001
 -1.0209909e-001
 -1.1464057e-001
 -1.0616290e-001
 -9.3768564e-002
 -7.9481793e-002
 -7.8257093e-002
 -8.8991803e-002
 -9.7645127e-002
 -1.1020921e-001
 -1.1270899e-001
 -9.9251250e-002
 -1.0980304e-001
 -1.1030697e-001
 -1.0582469e-001
 -9.9384820e-002
 -9.3991282e-002
 -1.0158654e-001
 -8.2227997e-002
 -6.1034249e-002
 -6.5906315e-002
 -8.5675976e-002
 -9.1339558e-002
 -9.0979422e-002
 -9.7591570e-002
 -7.9249851e-002
 -6.2052389e-002
 -8.1842935e-002
 -9.7486361e-002
 -9.7065197e-002
 -1.0760019e-001
 -9.9124297e-002
 -1.0366214e-001
 -1.1214402e-001
 -8.1713558e-002
 -7.1448211e-002
 -7.7199842e-002
 -8.0911036e-002
 -7.9610632e-002
 -6.8360125e-002
 -8.0106058e-002
 -1.0071737e-001
 -9.7256051e-002
 -9.6808429e-002
 -8.8394930e-002
 -8.0048188e-002
 -7.6747448e-002
 -8.0443368e-002
 -9.2074520e-002
 -7.7714903e-002
 -7.9405445e-002
 -8.0084498e-002
 -8.2748012e-002
 -9.8334611e-002
 -8.6901959e-002
 -7.6556641e-002
 -7.0277818e-002
 -7.1020162e-002
 -6.4783586e-002
 -8.3494273e-002
 -8.8107380e-002
 -6.7783065e-002
 -7.4512879e-002
 -8.4173715e-002
 -8.0806819e-002
 -6.3522906e-002
 -8.0239713e-002
 -8.4867119e-002
 -7.5511997e-002
 -7.5194757e-002
 -7.0894765e-002
 -6.0652914e-002
 -6.4436198e-002
 -7.7150299e-002
 -7.5815985e-002
 -6.5527669e-002
 -5.3330223e-002
 -7.7084003e-002
 -9.1678611e-002
 -8.4241684e-002
 -7.3875762e-002
 -7.2555978e-002
 -5.1327204e-002
 -5.6164491e-002
 -8.5858658e-002
 -7.9455352e-002
 -9.4016419e-002
 -7.3599355e-002
 -6.2310576e-002
 -7.4018478e-002
 -7.2682113e-002
 -6.9363108e-002
 -5.7106452e-002
 -5.1920085e-002
 -5.5738178e-002
 -5.5540233e-002
 -5.4346798e-002
 -4.5194721e-002
 -3.0141182e-002
 -4.2099754e-002
 -4.1013041e-002
 -3.8938576e-002
 -4.8831249e-002
 -4.6691196e-002
 -6.9465299e-002
 -5.9186681e-002
 -3.9031701e-002
 -6.6844192e-002
 -7.4509594e-002
 -6.2192363e-002
 -4.9974353e-002
 -4.4826487e-002
 -3.4740284e-002
 -4.7641760e-002
 -6.6412172e-002
 -5.4154467e-002
 -4.0999840e-002
 -3.7911005e-002
 -3.6838536e-002
 -3.0794656e-002
 -2.3803824e-002
 -2.7824861e-002
 -1.9861813e-002
 -1.2959674e-002
 -3.3003496e-002
 -2.8981213e-002
 -1.6028271e-002
 -1.6128001e-002
 -1.3239223e-002
 -1.1370082e-002
 -1.4495917e-002
 -9.6290374e-003
  1.1732403e-003
 -1.9982314e-002
 -4.0964791e-002
 -1.4967425e-002
  8.5830648e-004
 -1.4318946e-002
 -2.1404954e-002
 -2.1461534e-002
 -1.9525673e-002
  3.2073610e-004
  3.0739643e-003
 -2.0089465e-002
 -2.7128928e-002
 -3.0126857e-002
 -2.0153061e-002
 -2.0219710e-002
 -2.8252905e-002
 -1.6301938e-002
  5.3084853e-004
  6.2705193e-003
 -5.9637505e-003
 -5.1515843e-003
 -1.3587111e-003
  4.3944686e-003
  1.1367933e-003
 -3.0907276e-003
  1.6617570e-002
  7.2824324e-003
  1.0105438e-003
 -3.2188343e-003
 -2.7332141e-002
 -2.1370813e-002
 -9.4826226e-003
 -4.1511610e-002
 -6.3318840e-002
 -5.8056784e-002
 -6.5783077e-002
 -7.5436323e-002
 -7.5049593e-002
 -7.5659920e-002
 -8.3234550e-002
 -8.1781822e-002
 -8.1334622e-002
 -7.9892931e-002
 -6.5514076e-002
 -6.6189610e-002
 -5.5902927e-002
 -4.1715318e-002
 -6.1503490e-002
 -8.8099597e-002
 -8.7586352e-002
 -8.2095288e-002
 -8.7601739e-002
 -9.2064757e-002
 -9.5492715e-002
 -9.8889857e-002
 -9.9268602e-002
 -9.3665895e-002
 -1.0304480e-001
 -8.8442258e-002
 -7.7940128e-002
 -8.9431496e-002
 -8.4891814e-002
 -8.6362177e-002
 -8.1842546e-002
 -8.9308306e-002
 -1.0965711e-001
 -7.5061497e-002
 -5.2697370e-002
 -6.4375360e-002
 -7.2968311e-002
 -8.6468381e-002
 -1.1977355e-001
 -1.1396244e-001
 -4.7445176e-002
 -4.0228740e-002
 -7.3902275e-002
 -6.8458042e-002
 -6.9031703e-002
 -8.0553552e-002
 -7.3056573e-002
 -6.9602292e-002
 -6.5178247e-002
 -6.3776124e-002
 -6.6367164e-002
 -6.2959589e-002
 -5.9577973e-002
 -4.7259079e-002
 -4.5994460e-002
 -3.4779800e-002
 -3.3614893e-002
 -4.6401228e-002
 -3.9163583e-002
 -6.5844709e-002
 -8.9317957e-002
 -7.4752129e-002
 -5.6319433e-002
 -5.5961979e-002
 -6.4568860e-002
 -6.4140227e-002
 -5.8733574e-002
 -6.0340622e-002
 -7.2887584e-002
 -7.4374710e-002
 -7.2859597e-002
 -7.8325870e-002
 -8.8724456e-002
 -9.3059731e-002
 -9.7356538e-002
 -1.1954130e-001
 -1.2958992e-001
 -1.4353571e-001
 -1.6234225e-001
 -1.7601012e-001
 -1.9653168e-001
 -2.1787480e-001
 -2.2708526e-001
 -2.3123326e-001
 -2.4231088e-001
 -2.3337167e-001
 -2.1951812e-001
 -2.1672531e-001
 -2.0299300e-001
 -1.8339061e-001
 -1.5896265e-001
 -1.3871254e-001
 -1.1463954e-001
 -8.0800288e-002
 -4.8230698e-002
 -1.2937861e-002
  2.2067066e-002
  4.6826224e-002
  7.4369297e-002
  1.0965211e-001
  1.4862659e-001
  1.9823255e-001
  2.5041417e-001
  2.9419368e-001
  3.4059322e-001
  3.8461028e-001
  4.1929149e-001
  4.4869561e-001
  4.2804909e-001
  4.1552420e-001
  4.3993615e-001
  4.5118691e-001
  4.6830582e-001
  4.8825661e-001
  4.7615876e-001
  4.5318866e-001
  4.4134581e-001
  3.8277718e-001
  3.2069057e-001
  3.0690381e-001
  2.9720267e-001
  2.6167695e-001
  2.1647340e-001
  1.9951699e-001
  2.0758962e-001
  2.4347408e-001
  2.5216706e-001
  2.2990695e-001
  2.1479187e-001
  2.0377619e-001
  1.9085133e-001
  1.7404150e-001
  1.7329709e-001
  1.4865062e-001
  1.1025734e-001
  8.7112152e-002
  7.4111622e-002
  5.2251075e-002
  3.3554520e-002
  1.5009002e-002
 -3.3860942e-003
 -3.2586323e-002
 -6.1547422e-002
 -7.5331816e-002
 -1.0493613e-001
 -1.4027100e-001
 -1.6037438e-001
 -1.6238241e-001
 -1.9723406e-001
 -2.3777020e-001
 -2.6103720e-001
 -2.5323280e-001
 -2.5245561e-001
 -2.7059903e-001
 -2.7663472e-001
 -3.3738701e-001
 -3.9563996e-001
 -4.0759226e-001
 -3.9652780e-001
 -4.0844668e-001
 -4.1527526e-001
 -4.3896476e-001
 -4.6842157e-001
 -4.4483918e-001
 -4.5429972e-001
 -4.7362690e-001
 -4.8580898e-001
 -4.8094491e-001
 -4.7610454e-001
 -4.7527141e-001
 -4.8040456e-001
 -4.8249186e-001
 -4.6661955e-001
 -4.6679568e-001
 -4.4803238e-001
 -4.4733351e-001
 -4.5160463e-001
 -4.2296057e-001
 -4.0847885e-001
 -3.8713015e-001
 -3.6594262e-001
 -3.4491563e-001
 -3.1906902e-001
 -2.9740617e-001
 -2.7292224e-001
 -2.4364930e-001
 -2.2755372e-001
 -2.1357335e-001
 -1.8774869e-001
 -1.6212827e-001
 -1.3969898e-001
 -1.2242727e-001
 -1.0827975e-001
 -9.9223129e-002
 -8.3265246e-002
 -6.8430279e-002
 -5.9689055e-002
 -4.2053485e-002
 -3.6510851e-002
 -3.6987045e-002
 -3.6461511e-002
 -3.1954741e-002
 -3.4454373e-002
 -3.6931711e-002
 -1.8472871e-002
 -2.9044826e-002
 -3.3553237e-002
 -2.3084391e-002
 -2.1662775e-002
 -1.7263622e-002
  9.0107523e-003
  3.0091219e-002
  8.1751924e-003
  2.3732581e-003
 -1.8319149e-002
 -1.7927059e-002
  2.0307501e-002
  7.4384247e-003
 -3.3331463e-003
 -6.0485759e-003
 -7.7449628e-003
  1.0491591e-002
  6.6695514e-003
  9.8506008e-003
  1.0018340e-002
 -4.7534442e-003
 -6.4568091e-003
  1.8137487e-003
 -1.9334736e-003
 -2.0587805e-002
 -7.2192662e-003
  1.5004100e-002
  1.6132041e-002
  9.2837404e-003
  5.4795796e-003
  2.7029918e-003
  5.9251883e-003
  1.3105210e-002
  9.2719017e-003
  4.9085776e-004
 -6.2258490e-003
 -6.9112542e-003
 -2.6105476e-003
 -1.1290904e-002
 -4.9605963e-003
  7.2943080e-003
  5.2736742e-004
 -8.1753084e-003
 -1.0830370e-002
 -5.1584428e-004
  1.3698754e-002
  3.6760582e-002
  2.5772672e-002
  1.3878596e-002
  4.0738726e-003
 -1.6664422e-003
  2.4509919e-002
  9.6401637e-003
  1.0826886e-002
  1.4992024e-002
  1.2152049e-002
  3.2241442e-002
  2.0297358e-002
  1.4796876e-003
  7.7141789e-003
  5.9309798e-003
 -1.8124908e-003
  1.0426255e-002
  1.2606324e-002
  5.8057865e-003
 -9.3857306e-004
  2.3246029e-002
  5.1216513e-002
  4.2108932e-002
  2.9091555e-002
  2.2155820e-002
  2.3244044e-002
  2.4323358e-002
  2.6389701e-002
  2.6447222e-002
  2.4512343e-002
  2.4585031e-002
  1.7685736e-002
  1.8798840e-003
  1.1101549e-002
  2.2240018e-002
  2.0340689e-002
  2.7420103e-002
  2.7470151e-002
  2.5527822e-002
  3.0572602e-002
  3.5575869e-002
  3.3566468e-002
  3.6552642e-002
  3.9513929e-002
  4.0458623e-002
  4.5378600e-002
  4.2290347e-002
  3.6238958e-002
  3.5216088e-002
  3.9180658e-002
  3.8132721e-002
  3.1117387e-002
  2.8142714e-002
  3.3159380e-002
  3.1163326e-002
  4.0138216e-002
  5.4018631e-002
  4.3882788e-002
  2.8849545e-002
  6.0746439e-002
  8.0430388e-002
  5.1152138e-002
  4.9997558e-002
  5.8810485e-002
  7.6513223e-002
  5.5229115e-002
  5.2044129e-002
  7.4777625e-002
  5.9479095e-002
  7.6173249e-002
  8.2770000e-002
  8.8314810e-002
  8.7836569e-002
  1.0130260e-001
  1.0170905e-001
  6.5260971e-002
  8.3884039e-002
  1.0235267e-001
  1.1469208e-001
  1.1995605e-001
  8.7329238e-002
  7.8868535e-002
  9.6368457e-002
  1.0177182e-001
  1.0414047e-001
  1.0549093e-001
  9.8860151e-002
  1.0921120e-001
  1.1150728e-001
  1.0681007e-001
  1.1609087e-001
  1.0935797e-001
  1.0765650e-001
  1.0994945e-001
  1.1222047e-001
  1.2044509e-001
  1.1963578e-001
  1.3376811e-001
  1.4280136e-001
  1.4279330e-001
  1.4278096e-001
  1.2882172e-001
  1.1198501e-001
  1.3412286e-001
  1.7300599e-001
  1.6077473e-001
  1.5859750e-001
  1.5543721e-001
  1.3536755e-001
  1.3238815e-001
  1.5333070e-001
  1.5517504e-001
  1.5799532e-001
  1.5282032e-001
  1.3274423e-001
  1.6361921e-001
  1.5539629e-001
  1.3727662e-001
  1.5017374e-001
  1.5897700e-001
  1.6969499e-001
  1.6040179e-001
  1.4022445e-001
  1.3215841e-001
  1.4108441e-001
  1.6487143e-001
  1.8746269e-001
  1.7301466e-001
  1.5369956e-001
  1.6341853e-001
  1.7106086e-001
  1.6170469e-001
  1.4943195e-001
  1.5119725e-001
  1.5891852e-001
  1.6457956e-001
  1.6819701e-001
  1.6580384e-001
  1.7039599e-001
  1.7295305e-001
  1.7548338e-001
  1.6304853e-001
  1.6764019e-001
  1.6521728e-001
  1.6480037e-001
  1.8131160e-001
  1.6979634e-001
  1.6832844e-001
  1.6089133e-001
  1.5350948e-001
  1.5116219e-001
  1.4185751e-001
  1.3959528e-001
  1.3037534e-001
  1.3218114e-001
  1.3795113e-001
  1.4167728e-001
  1.3540893e-001
  1.2321161e-001
  1.3003178e-001
  1.4276697e-001
  1.4642983e-001
  1.3910260e-001
  1.2485896e-001
  1.2765763e-001
  1.3242061e-001
  1.2120541e-001
  1.1007747e-001
  1.0102827e-001
  1.0400013e-001
  1.0694383e-001
  9.9900447e-002
  8.7931380e-002
  8.5019946e-002
  7.1174110e-002
  6.8393607e-002
  8.7542998e-002
  8.6614385e-002
  1.0560809e-001
  1.1249167e-001
  8.0474502e-002
  7.8593042e-002
  9.3654217e-002
  8.8670560e-002
  5.7830689e-002
  5.7117636e-002
  8.1305591e-002
  6.9440024e-002
  5.2689107e-002
  4.3044185e-002
  3.6463863e-002
  3.3919207e-002
  5.2307669e-002
  5.7596755e-002
  2.8979404e-002
  2.3500294e-002
  4.5949953e-002
  5.1283618e-002
  2.9682003e-002
  4.1120271e-002
  3.6528625e-002
  2.2013694e-002
  4.6456377e-002
  3.6836368e-002
  3.2272722e-002
  3.5711959e-002
  2.2190938e-002
  1.9734077e-002
  1.9287865e-002
  1.6852262e-002
  1.6427226e-002
  1.5008620e-002
  8.6210002e-003
  2.2847221e-003
 -2.0086146e-003
  3.6916608e-003
  1.3328228e-002
  5.9546033e-003
  1.6281776e-003
  1.3200861e-003
  4.9974854e-003
  5.6563408e-003
 -4.6459216e-003
 -1.3868496e-002
 -1.1064960e-002
 -1.4259996e-002
 -2.7388069e-002
 -3.6424874e-002
 -4.9370786e-002
 -4.0299910e-002
 -4.2257374e-002
 -6.3120175e-002
 -5.4929665e-002
 -3.9833529e-002
 -4.5774033e-002
 -5.3656814e-002
 -2.6617287e-002
 -2.0712481e-002
 -1.0872207e-002
 -5.0962004e-003
 -3.3228538e-002
 -3.7228631e-002
 -3.9203525e-002
 -3.5186094e-002
 -4.1159922e-002
 -3.7125045e-002
 -3.8101979e-002
 -3.6082486e-002
 -3.3082935e-002
 -5.0025415e-002
 -3.2967514e-002
 -2.6007542e-002
 -3.5038597e-002
 -5.0966501e-002
 -6.8754809e-002
 -4.0584333e-002
 -1.7622852e-002
 -2.8709754e-002
 -3.4726050e-002
 -3.1729376e-002
 -2.1785327e-002
 -2.1881397e-002
 -2.7951882e-002
 -3.7955923e-002
 -2.6963429e-002
 -1.1080890e-002
 -4.5123523e-002
 -5.8968744e-002
 -5.4773023e-002
 -5.9573396e-002
 -6.8316628e-002
 -8.1966090e-002
 -6.3632767e-002
 -4.6443576e-002
 -4.4332389e-002
 -4.5225152e-002
 -5.1089082e-002
 -4.9932489e-002
 -3.9821000e-002
 -2.8795394e-002
 -3.1802068e-002
 -4.3746675e-002
 -3.6670433e-002
 -2.3675835e-002
 -3.4688815e-002
 -4.3619222e-002
 -4.9487878e-002
 -4.6344192e-002
 -3.6253756e-002
 -4.8154908e-002
 -4.5019012e-002
 -3.5932240e-002
 -3.6878008e-002
 -2.9847990e-002
 -3.2833895e-002
 -4.8741445e-002
 -5.0575057e-002
 -5.2392383e-002
 -6.1164818e-002
 -2.9031820e-002
 -1.4091315e-002
 -4.3092641e-002
 -2.4052422e-002
  2.7997804e-003
  6.5261811e-003
 -1.2684274e-002
 -2.8749918e-002
 -1.5802423e-002
 -2.0886904e-002
 -2.6925398e-002
 -3.0922192e-002
 -3.8869263e-002
 -4.1770912e-002
 -4.3651904e-002
 -3.9540999e-002
 -4.5421780e-002
 -3.0339340e-002
 -1.9363167e-002
 -2.6402707e-002
 -1.2470185e-002
 -6.6187380e-003
 -1.2766108e-002
 -6.9122982e-003
 -1.6045025e-002
 -1.5143861e-002
 -3.0725487e-004
 -4.5144609e-003
 -1.9642410e-002
 -2.2695522e-002
 -2.8710970e-002
 -2.3721680e-002
 -2.6739959e-002
 -1.8778065e-002
 -7.8932662e-003
 -4.0917298e-002
 -3.4830052e-002
 -2.2816319e-002
 -2.0859412e-002
 -3.9795809e-003
 -3.1724120e-003
 -5.3597778e-003
 -1.7488448e-002
 -1.1591433e-002
 -1.7693416e-002
 -2.0757533e-002
 -1.0849480e-002
 -1.8948661e-002
 -5.0714314e-003
 -3.3135769e-002
 -4.9019024e-002
 -2.5930850e-002
 -2.5936672e-002
 -2.1958275e-002
 -2.5979209e-002
 -2.2995383e-002
 -2.0035488e-002
 -4.1001117e-002
 -5.9802457e-002
 -4.5583553e-002
 -2.3512437e-002
 -1.7555734e-002
 -2.6585991e-002
 -3.1558203e-002
 -2.4538148e-002
 -1.5583144e-002
 -1.3672441e-002
 -1.6756704e-002
 -1.4835953e-002
 -2.3885630e-002
 -3.1864895e-002
 -4.4757650e-002
 -5.9535577e-002
 -4.2322038e-002
 -2.1264464e-002
 -4.1210656e-002
 -5.6013133e-002
 -6.6709353e-002
 -6.7357100e-002
 -4.2104041e-002
 -2.6019411e-002
 -3.2971439e-002
 -3.8869857e-002
 -3.2768137e-002
 -5.7588453e-002
 -2.6433532e-002
 -8.4794144e-003
 -3.4491789e-002
 -1.8462602e-002
 -1.7502624e-002
 -2.0533741e-002
 -3.0510931e-002
 -3.9409839e-002
 -5.2218496e-002
 -4.1019201e-002
 -2.1943069e-002
 -2.5928151e-002
 -2.9879983e-002
 -2.8819184e-002
 -1.6811347e-002
 -1.7848062e-002
 -2.7839029e-002
 -2.3804918e-002
 -1.7811372e-002
 -3.8755819e-002
 -3.9609840e-002
 -3.1492598e-002
 -4.4354822e-002
 -3.5200693e-002
 -2.7116302e-002
 -1.7105461e-002
 -1.3151483e-002
 -3.8110767e-002
 -3.9959090e-002
 -3.5815701e-002
 -4.9631412e-002
 -1.4533377e-002
 -2.0554013e-002
 -4.1463444e-002
 -4.6266223e-002
 -5.3020136e-002
 -4.1790925e-002
 -4.3599005e-002
 -1.7505670e-002
  3.3952684e-003
 -1.0731549e-002
 -1.0799988e-002
  5.0668254e-003
 -1.1062662e-003
  7.3824938e-004
 -5.3996994e-003
 -1.3479221e-002
 -4.5619992e-003
 -5.6766942e-003
 -4.7904047e-003
 -5.9031347e-003
  9.6053463e-004
  1.6731064e-002
  3.2371968e-002
  4.0912456e-002
  4.6393903e-002
  4.6849324e-002
  4.4311601e-002
  4.8764322e-002
  4.8199339e-002
  4.1661784e-002
  4.1151551e-002
  4.0643952e-002
  3.1175845e-002
  2.1783939e-002
  2.4418768e-002
  2.6035165e-002
  3.0625017e-002
  4.8122892e-002
  1.8668445e-002
 -6.5623777e-003
  1.1236985e-002
 -1.0945880e-002
 -1.9004540e-002
 -1.0745248e-004
  1.8634965e-002
  4.5190578e-002
  5.6588826e-002
  4.5981922e-002
  5.6373985e-002
  6.6679003e-002
  3.1085764e-002
  3.1634819e-002
  2.7198602e-002
  3.1760670e-002
  3.3296456e-002
  4.9412466e-003
  1.1674116e-002
 -2.0488910e-002
 -1.7531872e-002
  2.3317313e-003
 -1.1828080e-002
 -2.9661514e-003
 -1.1107148e-002
 -2.3165036e-002
 -3.2136060e-002
 -1.7131175e-002
 -1.2207632e-002
 -1.8279076e-002
 -1.8325045e-002
 -2.0362030e-002
 -3.1345008e-002
 -4.2237335e-002
 -1.7186850e-002
 -1.6242475e-002
 -3.4227634e-002
 -4.9077078e-002
 -3.5918347e-002
 -3.0833404e-002
 -4.6703154e-002
 -4.6507303e-002
 -4.5315760e-002
 -4.9112122e-002
 -5.0884153e-002
 -4.1685206e-002
 -4.8494683e-002
 -4.8275685e-002
 -2.5151218e-002
 -1.2174149e-002
 -1.7229178e-002
 -2.5230153e-002
 -4.0136332e-002
 -4.9939913e-002
 -6.1653606e-002
 -6.2314650e-002
 -5.7988802e-002
 -5.0708783e-002
 -2.9544043e-002
 -3.3449054e-002
 -2.2382568e-002
 -2.0369048e-002
 -4.6256713e-002
 -4.6037779e-002
 -3.9843765e-002
 -4.7641800e-002
 -4.0436016e-002
 -3.0300162e-002
 -3.0205281e-002
 -3.1106146e-002
 -3.4986391e-002
 -3.6842006e-002
 -4.8640324e-002
 -4.0422542e-002
 -3.6254271e-002
 -5.1041095e-002
 -4.4791392e-002
 -4.7554469e-002
 -5.1289314e-002
 -4.3041104e-002
 -5.3781098e-002
 -5.6464287e-002
 -3.7213796e-002
 -3.9033451e-002
 -2.5898389e-002
 -2.4820716e-002
 -3.7693693e-002
 -2.6558488e-002
 -2.9456099e-002
 -2.7349525e-002
 -1.8287941e-002
 -1.0295740e-002
 -2.0294811e-002
 -1.9256515e-002
 -3.5156429e-002
 -8.8769513e-002
 -7.9199350e-002
 -7.8667896e-002
 -1.0004801e-001
 -9.9340063e-002
 -1.3747478e-001
 -1.5537499e-001
 -1.4623418e-001
 -1.5807710e-001
 -1.7380143e-001
 -1.7445272e-001
 -1.8704357e-001
 -1.9653737e-001
 -1.9598777e-001
 -1.8846461e-001
 -1.6207429e-001
 -1.6079170e-001
 -1.7744027e-001
 -1.6606125e-001
 -1.4381452e-001
 -1.2373642e-001
 -9.9834454e-002
 -7.4132485e-002
 -4.4654277e-002
 -1.4419400e-002
  1.8556756e-002
  2.3377656e-002
  6.7994783e-002
  1.4411404e-001
  1.9271699e-001
  2.3992046e-001
  2.8374247e-001
  3.2918871e-001
  3.6030987e-001
  3.8618515e-001
  4.1482377e-001
  4.3325538e-001
  4.3558737e-001
  4.3688980e-001
  4.3916283e-001
  4.2745984e-001
  4.3077668e-001
  4.5795352e-001
  4.5103193e-001
  4.3817619e-001
  4.1047208e-001
  3.5210744e-001
  3.1313004e-001
  2.8143183e-001
  2.5297070e-001
  2.1875801e-001
  2.2365756e-001
  2.4444361e-001
  2.3119039e-001
  2.3397179e-001
  2.4568528e-001
  2.0949091e-001
  1.6063820e-001
  1.4603972e-001
  1.2956338e-001
  1.1421277e-001
  1.0296691e-001
  8.8821284e-002
  6.6820542e-002
  1.0140239e-002
  4.7135261e-003
 -6.6954332e-004
 -2.6923124e-002
 -3.8023168e-002
 -5.8990786e-002
 -5.9867483e-002
 -7.3682308e-002
 -8.3398649e-002
 -9.9008720e-002
 -1.5233272e-001
 -1.9824485e-001
 -2.0294342e-001
 -2.1556450e-001
 -2.3604287e-001
 -2.5335864e-001
 -2.8247563e-001
 -3.0437418e-001
 -3.2210027e-001
 -3.3767919e-001
 -3.6108698e-001
 -3.7134486e-001
 -3.8748212e-001
 -3.8754025e-001
 -3.8559331e-001
 -4.0057992e-001
 -4.0845940e-001
 -4.2124040e-001
 -4.2693155e-001
 -4.2758238e-001
 -4.2920949e-001
 -4.3678430e-001
 -4.3033984e-001
 -4.3488849e-001
 -4.5133610e-001
 -4.6165852e-001
 -4.6690135e-001
 -4.7308133e-001
 -4.5927658e-001
 -4.3959356e-001
 -4.4794168e-001
 -4.4027169e-001
 -4.3065742e-001
 -4.0118879e-001
 -3.6995533e-001
 -3.5191106e-001
 -3.3001835e-001
 -3.2920697e-001
 -3.1643973e-001
 -2.9978202e-001
 -2.6133992e-001
 -2.1423953e-001
 -2.0834839e-001
 -2.0648134e-001
 -1.7673659e-001
 -1.5917919e-001
 -1.7263226e-001
 -1.5210804e-001
 -1.2975393e-001
 -1.2649960e-001
 -1.0334874e-001
 -9.5321426e-002
 -7.8392579e-002
 -5.9606862e-002
 -6.6865384e-002
 -4.7172066e-002
 -3.3612738e-002
 -3.1117219e-002
 -3.6607422e-002
 -5.2009679e-002
 -2.7447241e-002
 -8.0633385e-003
 -5.7671259e-003
 -6.4763209e-003
 -1.4149942e-002
 -1.7775847e-002
 -2.7346045e-002
 -2.5881247e-002
 -5.5044904e-003
 -8.1990316e-003
 -1.8837597e-002
 -1.4449093e-002
 -2.1278490e-003
  7.1059269e-003
 -4.6490988e-003
 -4.3561081e-003
  7.8863891e-003
  1.4054019e-002
  2.1167569e-002
  2.3296651e-003
 -2.2328812e-002
 -7.9437785e-003
  9.3125413e-003
  5.5144050e-003
  8.7193812e-003
  1.2894685e-002
  5.0854949e-003
 -3.6550029e-003
  1.2574597e-002
 -3.1969112e-003
 -2.6805674e-002
 -1.7354769e-002
 -4.9919099e-003
  2.9964573e-004
  5.6934257e-004
 -2.1499622e-003
  1.0092528e-002
  2.0243717e-002
  1.6369516e-002
  2.8461836e-002
 -8.3440114e-003
 -9.9910961e-003
  1.9249573e-002
  1.7378455e-002
  3.2453352e-002
  1.8523641e-002
  8.6917459e-003
  1.3879435e-002
  7.0743371e-003
 -4.6539425e-003
 -3.3384912e-003
  1.9508723e-003
  6.2019632e-003
  1.9382166e-002
  1.4528635e-002
  1.3698855e-002
  1.8851764e-002
  1.9979239e-002
  2.9064998e-002
  4.2060053e-002
  3.5030318e-002
  3.3037337e-002
  2.9068670e-002
  9.1979496e-003
  5.4247732e-003
 -5.2881276e-003
  1.1972976e-002
  2.7101684e-002
  2.4180464e-002
  2.9250481e-002
  2.5315867e-002
  4.4319292e-002
  4.7232334e-002
  4.9125001e-002
  6.0960509e-002
  4.3816924e-002
  1.8845721e-002
  2.3956076e-002
  4.8942839e-002
  4.4843382e-002
  5.3723600e-002
  6.2530324e-002
  3.6407225e-002
  2.2448232e-002
  2.7525685e-002
  4.6504258e-002
  6.1343392e-002
  5.8133777e-002
  3.5031272e-002
  4.1501346e-003
  2.2321509e-002
  4.1340364e-002
  3.2317923e-002
  3.5319896e-002
  2.0370760e-002
  2.9445736e-002
  5.7368583e-002
  7.6098963e-002
  6.6789227e-002
  5.7554237e-002
  6.2336339e-002
  7.3053540e-002
  8.4677433e-002
  5.3380445e-002
  4.6240083e-002
  4.7124625e-002
  4.7005296e-002
  5.3857533e-002
  4.8701936e-002
  5.9522151e-002
  6.0293701e-002
  5.2094615e-002
  5.3920678e-002
  6.8677573e-002
  8.0324621e-002
  7.2952393e-002
  7.0618317e-002
  8.7223928e-002
  8.9748995e-002
  9.1255293e-002
  8.1792058e-002
  8.6346880e-002
  1.1277222e-001
  1.0412186e-001
  9.1555882e-002
  8.7057545e-002
  9.4544654e-002
  1.0395992e-001
  1.0333642e-001
  9.8731659e-002
  1.0013737e-001
  1.0152894e-001
  8.9959676e-002
  9.9396657e-002
  1.1174155e-001
  1.0904388e-001
  1.1831613e-001
  1.2750927e-001
  1.1570965e-001
  1.0001964e-001
  1.2130363e-001
  1.4738969e-001
  1.6130730e-001
  1.5220054e-001
  1.4515552e-001
  1.5409828e-001
  1.2013947e-001
  1.0936061e-001
  1.1958074e-001
  1.1178758e-001
  1.1799758e-001
  1.4705916e-001
  1.6193607e-001
  1.2489942e-001
  9.9116829e-002
  1.1537015e-001
  1.3547080e-001
  1.4444810e-001
  1.5533942e-001
  1.5518199e-001
  1.6199241e-001
  1.6774622e-001
  1.6448464e-001
  1.6622412e-001
  1.6396058e-001
  1.5673089e-001
  1.5154721e-001
  1.5138069e-001
  1.3925995e-001
  1.3619709e-001
  1.4311404e-001
  1.3602730e-001
  1.5986723e-001
  1.7354813e-001
  1.5823042e-001
  1.5100011e-001
  1.5079541e-001
  1.5755889e-001
  1.6525790e-001
  1.7288862e-001
  1.5654965e-001
  1.4930233e-001
  1.5406026e-001
  1.5279885e-001
  1.4955095e-001
  1.3935340e-001
  1.1827972e-001
  1.1928435e-001
  1.3322361e-001
  1.2015513e-001
  1.3009531e-001
  1.4891307e-001
  1.5661709e-001
  1.5230207e-001
  1.4502954e-001
  1.4378704e-001
  1.6047615e-001
  1.6507258e-001
  1.1285936e-001
  1.0389306e-001
  1.2288185e-001
  1.3075629e-001
  1.2959876e-001
  9.7573263e-002
  1.0066288e-001
  1.0969919e-001
  9.1768451e-002
  8.4936067e-002
  9.1103331e-002
  1.1215555e-001
  1.0514647e-001
  9.3211500e-002
  8.5354456e-002
  7.3575020e-002
  7.8819628e-002
  6.4100475e-002
  6.0454282e-002
  7.8745579e-002
  7.3978722e-002
  6.7256361e-002
  7.2537356e-002
  7.7772541e-002
  8.7941629e-002
  7.4122724e-002
  6.3401805e-002
  7.3680163e-002
  6.0965999e-002
  5.0345309e-002
  4.2797232e-002
  2.6346051e-002
  4.1897159e-002
  4.8356334e-002
  3.8826362e-002
  5.0286721e-002
  4.1733359e-002
  4.5199103e-002
  5.6601955e-002
  5.5958560e-002
  4.5359230e-002
  4.3807884e-002
  6.4177345e-002
  4.5537578e-002
  3.5015608e-002
  1.8602765e-002
  3.3190838e-003
  2.6004283e-002
  2.5597048e-002
  1.1249322e-002
  2.9936326e-003
  2.7722566e-003
  2.7449877e-002
  2.7026910e-002
  1.7085842e-003
 -6.4727582e-003
 -7.6159877e-003
 -4.7663190e-003
 -6.9196260e-003
 -1.0051319e-002
 -6.1860622e-003
  7.6065192e-003
  1.3676870e-003
 -2.8286959e-003
 -1.4958225e-002
 -2.3004788e-002
 -1.5050651e-002
 -2.1104010e-002
 -1.0177123e-002
 -1.5274005e-002
 -3.0288055e-002
 -3.0240095e-002
 -2.7204112e-002
 -2.5188251e-002
 -2.6176044e-002
 -1.9187959e-002
 -1.5244379e-002
 -1.3737948e-003
 -1.3510368e-002
 -3.3514794e-002
 -3.1444963e-002
 -3.4370817e-002
 -2.2333337e-002
 -1.6369241e-002
 -3.9334859e-002
 -7.0078916e-002
 -4.6790752e-002
 -2.3691699e-002
 -5.2567979e-002
 -5.2325479e-002
 -5.2083480e-002
 -3.5907522e-002
 -2.4842396e-002
 -4.0756567e-002
 -3.7617353e-002
 -4.8445453e-002
 -6.3167271e-002
 -3.8926615e-002
 -3.1813450e-002
 -3.8700271e-002
 -4.3537925e-002
 -4.7338903e-002
 -4.3140223e-002
 -2.4036102e-002
 -1.9030248e-002
 -4.6929735e-002
 -4.6714471e-002
 -5.6458660e-002
 -5.3174760e-002
 -4.3940717e-002
 -5.4698982e-002
 -4.9433203e-002
 -4.1221311e-002
 -4.1042605e-002
 -5.1819121e-002
 -4.8563335e-002
 -4.2345017e-002
 -3.4184498e-002
 -2.3102023e-002
 -2.6052216e-002
 -2.8977594e-002
 -3.4865973e-002
 -4.0705215e-002
 -3.9524199e-002
 -3.2376260e-002
 -4.6199821e-002
 -4.8954036e-002
 -2.4794851e-002
 -3.8676854e-002
 -6.3399159e-002
 -6.3019772e-002
 -5.0690674e-002
 -3.8460817e-002
 -3.8280642e-002
 -3.4117177e-002
 -4.3929392e-002
 -5.1668233e-002
 -2.6477373e-002
 -2.7385200e-002
 -1.9321674e-002
 -1.4311256e-002
 -4.1210360e-002
 -3.9007068e-002
 -1.1923001e-002
 -7.9658649e-003
 -1.6987673e-002
 -3.0914780e-002
 -4.2735284e-002
 -2.8564322e-002
 -3.9405955e-002
 -3.4223267e-002
 -3.8045034e-002
 -4.4822084e-002
 -1.8677490e-002
 -1.1668280e-002
 -1.1687399e-002
 -2.5648707e-002
 -1.7585214e-002
 -1.2574850e-002
 -1.9555955e-002
 -1.5524468e-002
 -1.4513212e-002
 -1.7493430e-002
 -2.0448773e-002
 -1.7403921e-002
 -2.4342491e-002
 -2.7239974e-002
 -2.6129309e-002
 -2.8014629e-002
 -3.0879565e-002
 -3.1728298e-002
 -3.0577282e-002
 -3.9393748e-002
 -3.2202407e-002
 -3.0048353e-002
 -2.3927338e-002
 -2.0843324e-002
 -3.4714237e-002
 -2.6560742e-002
 -3.1419809e-002
 -3.8229942e-002
 -2.9048693e-002
 -2.6912894e-002
 -4.8756128e-003
  8.0184953e-003
 -1.7037458e-002
 -4.0892116e-002
 -4.5628230e-002
 -4.2356887e-002
 -3.2139564e-002
 -2.7980139e-002
 -2.2857895e-002
 -4.4666177e-002
 -7.7249614e-002
 -9.3629611e-002
 -5.4101938e-002
 -5.9324798e-003
 -2.6873994e-002
 -3.3700731e-002
 -2.9515571e-002
 -5.3248927e-002
 -7.1806920e-002
 -2.4481109e-002
  1.8475010e-002
 -5.6462124e-003
 -1.8615068e-002
 -2.2514107e-002
 -3.1360002e-002
 -3.6148875e-002
 -3.9901445e-002
 -4.0634247e-002
 -3.3392423e-002
 -2.6208641e-002
 -3.2029416e-002
 -4.1785092e-002
 -3.7516901e-002
 -3.8261811e-002
 -3.7007480e-002
 -3.1778487e-002
 -3.0574728e-002
 -3.1371526e-002
 -3.3156590e-002
 -3.8909490e-002
 -3.8638553e-002
 -3.6376648e-002
 -4.0107355e-002
 -4.0818420e-002
 -4.1522212e-002
 -4.6202381e-002
 -3.0924565e-002
 -3.5688595e-002
 -6.7301778e-002
 -5.0850755e-002
 -3.9511933e-002
 -5.2166064e-002
 -5.6747639e-002
 -5.1330692e-002
 -4.6952086e-002
 -4.5595283e-002
 -3.2297063e-002
 -2.6077670e-002
 -2.8871242e-002
 -3.0644959e-002
 -2.5431673e-002
 -2.7231334e-002
 -1.6068468e-002
 -1.1967502e-002
 -3.2797101e-002
 -3.0549360e-002
 -2.5331100e-002
 -3.3101241e-002
 -2.9851639e-002
 -2.2643822e-002
 -3.6407983e-002
 -4.3086893e-002
 -3.6762827e-002
 -3.2480862e-002
 -1.3294077e-002
 -1.6173411e-002
 -1.6040766e-002
 -5.9494433e-003
 -8.8869861e-003
 -2.0763159e-002
 -2.5570022e-002
 -1.9381595e-002
 -2.1210148e-002
 -1.8043325e-002
 -2.0877012e-002
 -3.4641573e-002
 -3.3353677e-002
 -1.9128238e-002
 -2.5932232e-002
 -2.7700000e-002
 -1.6505425e-002
 -1.7352451e-002
 -1.1220429e-002
 -2.1502357e-003
  4.8542839e-003
  7.8179762e-003
  1.1753297e-002
  3.1590726e-002
  3.0351145e-002
  1.2355898e-003
  1.3190300e-002
  3.7993789e-002
  2.2757277e-002
  1.6693564e-003
 -3.2383185e-004
  3.6749164e-003
  2.2579612e-002
  3.1370158e-002
  1.8178105e-002
  2.5011575e-002
  3.0792635e-002
  1.5611617e-002
  1.2505235e-002
  1.8387161e-002
  3.3183709e-002
  3.8895232e-002
  2.5636774e-002
  2.8420502e-002
  2.1221667e-002
  1.3085257e-002
  1.1986440e-002
  4.9209655e-003
  1.8968891e-003
  4.8730783e-003
  2.6747125e-002
  1.4580891e-002
  9.4851432e-003
  2.2357185e-002
  1.3213534e-002
  2.8046062e-002
  2.1842579e-002
  2.0668774e-002
  3.3446696e-002
  4.2135582e-002
  3.8801338e-002
  2.5534180e-002
  2.2333833e-002
  1.8163158e-002
  1.2034323e-002
  9.7583193e-004
 -5.0126044e-003
 -7.9640436e-003
 -1.4874542e-002
 -1.2764749e-002
  6.2587471e-003
 -2.5664427e-002
 -7.0272330e-002
 -6.9697337e-002
 -6.1157303e-002
 -5.3680765e-002
 -5.1242888e-002
 -5.8782073e-002
 -5.6298419e-002
 -3.9890332e-002
 -4.3532930e-002
 -4.5152274e-002
 -4.6756655e-002
 -4.5358428e-002
 -4.5961701e-002
 -6.0500932e-002
 -6.1972291e-002
 -6.2433408e-002
 -6.1892521e-002
 -6.7329161e-002
 -6.0768003e-002
 -6.8200850e-002
 -7.9553997e-002
 -5.7946568e-002
 -8.3321058e-002
 -9.2550562e-002
 -7.3815915e-002
 -7.8137458e-002
 -7.9433041e-002
 -8.0715063e-002
 -7.7004068e-002
 -7.1328705e-002
 -6.7688835e-002
 -6.6067932e-002
 -6.8441345e-002
 -7.4776331e-002
 -6.8109921e-002
 -6.5478992e-002
 -7.3821958e-002
 -7.8110258e-002
 -7.6385084e-002
 -7.4671074e-002
 -7.8943611e-002
 -8.9153600e-002
 -7.5375035e-002
 -7.3657032e-002
 -8.6888748e-002
 -8.1086780e-002
 -7.2341391e-002
 -5.7689220e-002
 -6.1080736e-002
 -6.4442030e-002
 -6.9765041e-002
 -7.6037639e-002
 -6.4329676e-002
 -5.3710711e-002
 -5.8114847e-002
 -6.6464163e-002
 -6.1795755e-002
 -5.8158857e-002
 -5.1561536e-002
 -4.8003636e-002
 -5.0448132e-002
 -5.8845864e-002
 -5.9205221e-002
 -6.1550942e-002
 -7.1842126e-002
 -6.1132253e-002
 -5.7478680e-002
 -6.6799256e-002
 -6.9069515e-002
 -6.4347016e-002
 -8.0574388e-002
 -1.2455112e-001
 -1.4326597e-001
 -1.4489205e-001
 -1.2757720e-001
 -1.1936216e-001
 -1.5801713e-001
 -1.8838290e-001
 -1.8463272e-001
 -1.7991043e-001
 -1.8517907e-001
 -1.9238954e-001
 -1.8061172e-001
 -1.5298895e-001
 -1.6143867e-001
 -1.3694832e-001
 -1.0966512e-001
 -7.5629201e-002
 -1.7966539e-002
 -1.0569107e-002
  7.7239326e-003
  4.4790117e-002
  7.1593507e-002
  9.0208915e-002
  1.3954290e-001
  1.8946553e-001
  2.2702357e-001
  2.8219393e-001
  3.2993316e-001
  3.6332906e-001
  3.9644041e-001
  4.4321104e-001
  4.5970791e-001
  4.6111650e-001
  4.6449044e-001
  4.7280123e-001
  4.7405735e-001
  4.5238193e-001
  4.5277881e-001
  4.4021086e-001
  4.2374759e-001
  4.3031077e-001
  3.7705188e-001
  3.2023237e-001
  3.0768660e-001
  2.7033566e-001
  2.3726477e-001
  2.2935401e-001
  2.1552491e-001
  2.0478944e-001
  2.0508987e-001
  1.9741379e-001
  1.9078977e-001
  1.6628726e-001
  1.4197950e-001
  1.4077149e-001
  1.4255632e-001
  1.3137499e-001
  1.1231340e-001
  9.8383348e-002
  7.4604784e-002
  6.9940226e-002
  4.9376923e-002
  6.0742182e-003
 -2.5919798e-002
 -2.7774339e-002
 -4.7152724e-003
 -2.8652126e-002
 -6.1355528e-002
 -9.2793664e-002
 -1.1998811e-001
 -1.1907095e-001
 -1.6197710e-001
 -2.0452706e-001
 -2.2082881e-001
 -2.4794482e-001
 -2.6487177e-001
 -2.8364320e-001
 -3.0125569e-001
 -3.1373448e-001
 -3.2709652e-001
 -3.5527676e-001
 -3.7723910e-001
 -3.6813603e-001
 -3.7801698e-001
 -3.9577144e-001
 -4.0739176e-001
 -4.2288671e-001
 -4.3425682e-001
 -4.4053951e-001
 -4.4874743e-001
 -4.5288913e-001
 -4.5200176e-001
 -4.5309775e-001
 -4.7010348e-001
 -4.9392512e-001
 -4.9064538e-001
 -4.7841218e-001
 -4.3937282e-001
 -4.2453882e-001
 -4.3869227e-001
 -4.3777589e-001
 -4.3784736e-001
 -3.9408288e-001
 -3.5066204e-001
 -3.2451384e-001
 -3.0653476e-001
 -3.0860943e-001
 -2.6982369e-001
 -2.4827529e-001
 -2.3984038e-001
 -2.2051032e-001
 -2.0132977e-001
 -1.7831451e-001
 -1.7938195e-001
 -1.5752768e-001
 -1.2987016e-001
 -1.3131441e-001
 -1.1780266e-001
 -8.4478107e-002
 -6.7356389e-002
 -4.5391621e-002
 -4.2525818e-002
 -4.3664368e-002
 -3.1844124e-002
 -4.5015770e-002
 -4.0150669e-002
 -2.9347291e-002
 -2.3609483e-002
 -1.8912406e-002
 -2.6202646e-002
 -2.1480260e-002
 -2.6753497e-002
 -2.1026478e-002
 -1.6340170e-002
  2.6052744e-004
  1.8718614e-002
  5.1575584e-003
  5.6511688e-003
  1.4109100e-002
  2.1502819e-002
  1.9873551e-002
  1.6266445e-002
  4.7223709e-003
  1.1200103e-002
  2.4597143e-002
 -1.9510049e-003
 -3.9541366e-004
  1.2103733e-002
  1.1554856e-002
  6.0318801e-003
 -5.4202438e-003
  5.1326491e-003
  1.4604512e-002
  3.0857926e-003
  1.0584640e-002
  8.0641133e-003
  3.5734428e-003
  3.2981422e-002
  4.7210634e-002
  6.1323252e-002
  5.4405777e-002
  4.1568929e-002
  4.5767318e-002
  4.4951644e-002
  4.4142442e-002
  4.4335590e-002
  4.1539269e-002
  3.6773915e-002
  3.4039400e-002
  3.5311017e-002
  3.2588741e-002
  2.6901216e-002
  3.9186856e-002
  3.4441671e-002
  2.9735422e-002
  4.0006504e-002
  4.1230430e-002
  4.9415583e-002
  6.0521159e-002
  4.2653986e-002
  3.5887684e-002
  5.5070277e-002
  3.6251127e-002
  2.3561320e-002
  2.5914304e-002
  3.0240264e-002
  2.9551597e-002
  2.6877034e-002
  2.8208323e-002
  2.4549534e-002
  2.5900623e-002
  3.2220586e-002
  2.6538221e-002
  1.2935460e-002
  2.7330051e-002
  4.0611400e-002
  4.5816837e-002
  4.6995827e-002
  4.6173053e-002
  5.0336234e-002
  4.7493618e-002
  3.0731250e-002
  2.6056991e-002
  7.4204222e-002
  6.2202344e-002
  1.9424732e-002
  3.0776250e-002
  2.6100708e-002
  2.3455563e-002
  1.7844784e-002
  1.3255760e-003
  3.7725516e-002
  6.3868793e-002
  3.1039101e-002
  2.8355119e-002
  4.9595050e-002
  6.2693663e-002
  7.6680211e-002
  7.4616596e-002
  7.3564469e-002
  7.6503303e-002
  7.7424941e-002
  9.7259818e-002
  7.8090217e-002
  4.6129163e-002
  6.7211951e-002
  7.5174550e-002
  6.3152630e-002
  6.3178896e-002
  6.9179420e-002
  7.1146114e-002
  6.9111888e-002
  7.3068551e-002
  6.3048914e-002
  6.9044686e-002
  7.6982071e-002
  7.7881791e-002
  8.1760386e-002
  8.8593365e-002
  9.8356339e-002
  9.2102848e-002
  8.7890309e-002
  9.0681690e-002
  9.5440110e-002
  9.1194380e-002
  8.8973192e-002
  9.7723196e-002
  9.8432223e-002
  1.0311683e-001
  9.8797594e-002
  8.8535986e-002
  9.2298997e-002
  1.0399641e-001
  1.1360392e-001
  1.2810961e-001
  1.2157944e-001
  1.1111596e-001
  1.2662880e-001
  1.3902383e-001
  1.4235070e-001
  1.4564655e-001
  1.4691973e-001
  1.3921537e-001
  1.4352110e-001
  1.4480003e-001
  1.3710142e-001
  1.5336374e-001
  1.4757897e-001
  1.5080055e-001
  1.5797521e-001
  1.3421375e-001
  1.3554050e-001
  1.3884449e-001
  1.1423232e-001
  1.4060945e-001
  1.7871786e-001
  1.5575937e-001
  1.7680390e-001
  1.6381048e-001
  1.4295132e-001
  1.8998009e-001
  1.9678257e-001
  1.7165463e-001
  1.6066972e-001
  1.7167979e-001
  1.8857018e-001
  1.9137416e-001
  1.8618221e-001
  1.7704347e-001
  1.7494544e-001
  1.6688388e-001
  1.6187093e-001
  1.7979988e-001
  1.8761775e-001
  1.9636185e-001
  2.0901202e-001
  2.1458094e-001
  2.1710992e-001
  2.1164419e-001
  2.0522060e-001
  1.8987996e-001
  1.8959735e-001
  2.0723738e-001
  2.0680036e-001
  1.9540542e-001
  1.6915890e-001
  1.6503153e-001
  2.0176475e-001
  1.9437144e-001
  1.8006104e-001
  1.9275128e-001
  2.0134798e-001
  1.9194162e-001
  1.8061417e-001
  1.9626291e-001
  1.9584287e-001
  1.8247315e-001
  1.7717403e-001
  1.8685101e-001
  2.0938951e-001
  2.0086384e-001
  1.9439306e-001
  1.8597697e-001
  1.7264401e-001
  1.6937338e-001
  1.6413207e-001
  1.7087899e-001
  1.7656914e-001
  1.7324374e-001
  1.6993972e-001
  1.5968567e-001
  1.5548550e-001
  1.5529804e-001
  1.5311504e-001
  1.5990782e-001
  1.5568468e-001
  1.5049486e-001
  1.5131774e-001
  1.5013690e-001
  1.4896055e-001
  1.5177229e-001
  1.5156810e-001
  1.4239718e-001
  1.5022666e-001
  1.3408521e-001
  1.1607922e-001
  1.2112213e-001
  1.1815228e-001
  1.0524349e-001
  8.5465140e-002
  7.6800317e-002
  9.0113384e-002
  7.6424919e-002
  4.1931554e-002
  7.7431777e-002
  1.0467165e-001
  8.5873440e-002
  1.0507008e-001
  1.0916739e-001
  6.9407457e-002
  7.6777414e-002
  8.5080113e-002
  7.0405953e-002
  8.5726171e-002
  9.5938386e-002
  8.5149552e-002
  6.2494855e-002
  4.5998329e-002
  5.4532345e-002
  6.1002567e-002
  3.4552630e-002
  3.6202693e-002
  4.0825363e-002
  7.5641256e-003
  1.1422604e-002
  3.0187303e-002
  2.8879090e-002
  3.6543324e-002
  3.4184219e-002
  4.0805969e-002
  3.7412751e-002
  3.2053786e-002
  3.7692069e-002
  1.9380867e-002
  1.6156841e-002
  2.6900844e-002
  2.5604817e-002
  5.3959117e-003
  1.2860609e-003
  4.1806459e-003
  2.0714573e-003
  4.9585116e-003
 -7.1172118e-003
 -1.4114902e-002
 -5.1208988e-003
 -1.3131073e-002
 -1.5100347e-002
  1.8687049e-003
  2.7640467e-003
 -1.3279965e-003
 -4.3910901e-003
 -7.4294482e-003
 -3.4718453e-003
 -5.4284185e-004
 -1.3572683e-002
 -1.4545152e-002
 -1.4513734e-002
 -2.2449772e-002
 -2.4345207e-002
 -2.7220686e-002
 -2.9076291e-002
 -2.7928491e-002
 -2.9777298e-002
 -4.0573573e-002
 -3.4350302e-002
 -3.7140336e-002
 -3.9906755e-002
 -2.2731583e-002
 -1.3663736e-002
 -1.2637236e-002
 -1.4606852e-002
 -2.1539830e-002
 -2.3436321e-002
 -1.6353823e-002
 -2.4267670e-002
 -2.5145110e-002
 -3.3982194e-002
 -3.8762703e-002
 -2.5576989e-002
 -2.7437204e-002
 -3.3265329e-002
 -4.2032823e-002
 -4.0768611e-002
 -4.4493304e-002
 -3.6235623e-002
 -1.7089712e-002
 -2.5985477e-002
 -2.6840822e-002
 -2.6692780e-002
 -3.6504498e-002
 -3.3288432e-002
 -2.7110235e-002
 -1.5006622e-002
 -1.6944516e-002
 -2.7829532e-002
 -1.5719236e-002
 -2.0638186e-002
 -1.2569879e-002
 -1.5798005e-003
 -4.4458721e-002
 -5.2129349e-002
 -3.6830122e-002
 -3.6593689e-002
 -4.7313291e-002
 -5.8939954e-002
 -2.4658394e-002
  2.3720092e-003
 -1.2646998e-002
 -1.9575939e-002
 -6.5298783e-003
 -8.5291953e-003
 -1.9475393e-002
 -2.4356400e-002
 -1.4258505e-002
 -2.1173430e-002
 -3.0023293e-002
 -3.9435391e-003
  1.2869416e-005
 -2.0961037e-002
 -3.5787714e-002
 -4.6508728e-002
 -3.7222824e-002
 -2.6020151e-002
 -2.5863502e-002
 -2.0728111e-002
 -2.7585218e-002
 -3.7373409e-002
 -2.5170798e-002
 -1.5059274e-002
 -1.7977019e-002
 -1.5891143e-002
 -2.3781180e-002
 -2.4634941e-002
 -2.5754620e-003
  1.3771302e-003
 -9.6415485e-003
 -1.4594749e-002
 -1.5523701e-002
 -1.5448987e-002
 -1.8362428e-002
 -1.2288651e-002
 -1.0248085e-002
 -2.1170958e-002
 -1.1090189e-002
 -9.5910770e-005
 -4.1304216e-003
 -1.5103485e-002
 -1.8019447e-002
 -8.9604691e-003
 -9.7150672e-004
  1.5914957e-002
  1.1748499e-002
  1.0603069e-002
  9.4662960e-003
 -1.7555353e-002
 -1.8462347e-002
 -1.4353942e-003
  6.4889111e-003
 -1.5529255e-002
 -3.4379529e-002
 -2.6185486e-002
 -9.0947756e-003
 -1.1066012e-002
 -2.9951474e-002
 -1.8804766e-002
 -4.7611972e-003
  1.3150981e-002
  4.0265223e-003
 -1.4982860e-002
 -9.9349834e-003
 -2.8830084e-002
  2.2251025e-003
  2.9042350e-002
  5.8438347e-003
 -5.2147191e-003
 -1.7178943e-002
  8.7992158e-003
  1.8629874e-002
 -1.4979322e-003
  8.4156273e-003
 -1.2625519e-002
 -1.5568305e-002
  1.1390246e-002
 -2.7044026e-003
  3.2339901e-003
  8.1274606e-003
  4.0171566e-003
 -6.0038574e-005
 -2.7010045e-002
 -1.3903021e-002
  2.2002735e-002
  2.9728529e-002
  3.6393894e-002
  2.7068715e-002
  1.0847172e-002
  9.6960716e-003
  1.0545490e-002
  1.3379042e-002
  7.2254673e-003
 -8.8374555e-003
 -4.8510597e-003
  1.0943351e-003
  1.9379076e-005
  8.9118677e-003
  6.7760317e-003
 -6.2978932e-003
 -3.3306411e-003
  1.5546539e-002
  1.4350403e-002
 -1.7753785e-003
  2.5054213e-002
  4.6683703e-002
  2.6306440e-002
  2.3024860e-002
  4.6658339e-002
  2.5280960e-002
  6.0689103e-003
  2.2865857e-002
  2.6758601e-003
  4.5603131e-003
  2.2363253e-002
  2.0101402e-002
  1.3873336e-002
  1.2674825e-002
  4.5139407e-003
  2.3946272e-003
  2.3197924e-002
  1.2956919e-002
  1.6741433e-002
  3.7424379e-002
  3.5030753e-002
  2.0704243e-002
  7.4896337e-003
  1.3304544e-002
  2.2058737e-002
  2.6756560e-002
  1.8467883e-002
  4.2704811e-003
  4.1312136e-003
  7.9761101e-003
  6.8093335e-003
  9.6350294e-003
  4.4696153e-003
  4.3253454e-003
  2.1112016e-002
  2.5809432e-002
  1.2540847e-002
  1.9297935e-002
  3.1974087e-002
  1.7655660e-002
  2.2375405e-002
  3.2034856e-002
  2.8667035e-002
  2.9308923e-002
  1.6001444e-002
  5.7894538e-003
  2.6316000e-003
 -3.4887227e-003
  1.0358697e-002
  1.5128932e-002
  5.9165170e-003
  2.1676323e-002
  3.3322443e-002
  2.2961850e-002
  1.0692885e-002
  3.5028862e-003
  1.8280932e-002
  2.2978000e-002
  1.2696831e-002
 -3.4766390e-003
 -9.5592352e-003
 -7.6250617e-003
  1.2643694e-003
  3.8961777e-002
  4.5476142e-002
  3.7992551e-002
  3.2560154e-002
  3.2150072e-002
  5.6639328e-002
  4.5073397e-002
  2.2645036e-002
  4.0234890e-002
  4.3736387e-002
  3.9240010e-002
  4.9717080e-002
  4.3175903e-002
  3.6686194e-002
  4.0206784e-002
  3.9713055e-002
  3.1254228e-002
  3.7801487e-002
  3.9313848e-002
  4.3799652e-002
  3.8287685e-002
  7.9213112e-003
  1.3654878e-002
  1.7348706e-002
  1.5035729e-002
  2.2699593e-002
  1.6356782e-002
  9.0687683e-003
  2.8353311e-003
  1.5574323e-002
  2.1236704e-002
  2.2867849e-002
  5.1373676e-002
  6.1717834e-002
  4.8073035e-002
  3.9517067e-002
  3.4016802e-002
  2.4576109e-002
  1.3219328e-002
 -5.0170167e-003
  1.2747792e-002
  2.7378573e-002
  6.0356348e-003
 -8.1623364e-003
 -1.8260991e-002
 -1.7322180e-002
 -2.5354248e-002
 -4.2283581e-002
 -4.7122888e-002
 -2.0052775e-002
 -1.2126123e-002
 -2.5178492e-002
 -2.9160813e-002
 -3.5102045e-002
 -2.8047416e-002
 -2.9017390e-002
 -3.1970905e-002
 -3.2908027e-002
 -4.1804245e-002
 -3.5688402e-002
 -3.9581029e-002
 -5.5391973e-002
 -5.4142052e-002
 -6.0868382e-002
 -6.8534196e-002
 -7.1156128e-002
 -8.0726169e-002
 -8.9219956e-002
 -8.9674671e-002
 -8.2156017e-002
 -7.6688467e-002
 -7.6243140e-002
 -7.3807659e-002
 -7.2386083e-002
 -7.0974261e-002
 -6.7580348e-002
 -6.4212466e-002
 -6.7841836e-002
 -7.6419317e-002
 -6.6998375e-002
 -7.0599488e-002
 -7.5165219e-002
 -6.5748969e-002
 -7.2342474e-002
 -7.5892443e-002
 -7.8415445e-002
 -8.0915687e-002
 -8.2397364e-002
 -8.2868746e-002
 -8.1342168e-002
 -8.2813529e-002
 -8.0286937e-002
 -8.1762387e-002
 -8.0235777e-002
 -6.1789045e-002
 -5.3450541e-002
 -6.1113319e-002
 -6.4728222e-002
 -6.9307736e-002
 -6.0901164e-002
 -5.8537127e-002
 -6.3162199e-002
 -6.4760044e-002
 -6.4351256e-002
 -6.4939961e-002
 -6.3530269e-002
 -5.7150849e-002
 -4.9826157e-002
 -6.4469950e-002
 -8.2975855e-002
 -6.6471425e-002
 -6.7030438e-002
 -6.0611675e-002
 -5.4243720e-002
 -7.3819866e-002
 -8.6262513e-002
 -7.6691005e-002
 -5.3252870e-002
 -7.5816482e-002
 -9.8193409e-002
 -1.0245815e-001
 -1.2660298e-001
 -1.3560792e-001
 -1.4553088e-001
 -1.7130259e-001
 -1.8191956e-001
 -2.0240292e-001
 -2.1175734e-001
 -1.9115128e-001
 -2.0656004e-001
 -2.2781150e-001
 -2.1800874e-001
 -2.0529126e-001
 -2.0462186e-001
 -2.1092252e-001
 -1.8330398e-001
 -1.4196254e-001
 -1.1987659e-001
 -1.0693040e-001
 -7.4168453e-002
 -4.2667837e-002
 -1.9390615e-002
  1.8635452e-002
  5.0374526e-002
  8.0856460e-002
  1.0212327e-001
  1.3516356e-001
  1.9979803e-001
  2.6688497e-001
  3.0851676e-001
  3.4481818e-001
  3.8280288e-001
  4.1448857e-001
  4.4191745e-001
  4.5416844e-001
  4.6132422e-001
  4.5944254e-001
  4.6453179e-001
  4.5462488e-001
  4.4179556e-001
  4.3005172e-001
  4.3133569e-001
  4.1068426e-001
  3.6329790e-001
  3.2524929e-001
  2.7654525e-001
  2.4217210e-001
  2.1105888e-001
  1.8716355e-001
  1.7042791e-001
  1.8369974e-001
  2.0083975e-001
  2.0886898e-001
  2.0089030e-001
  1.6110038e-001
  1.4154762e-001
  1.5600985e-001
  1.4943377e-001
  1.2199160e-001
  1.0871147e-001
  7.6613206e-002
  5.0749326e-002
  5.8955022e-002
  2.6258691e-002
 -2.7086096e-002
 -4.3146315e-002
 -6.3058309e-002
 -8.0814493e-002
 -9.1452374e-002
 -1.0996834e-001
 -1.1737519e-001
 -1.2870203e-001
 -1.4989187e-001
 -1.6692068e-001
 -1.8679323e-001
 -2.2641595e-001
 -2.7865470e-001
 -2.5875274e-001
 -2.6888271e-001
 -3.4265943e-001
 -3.6702293e-001
 -3.7822889e-001
 -3.8534760e-001
 -3.9737535e-001
 -4.1227977e-001
 -4.1509823e-001
 -4.2983113e-001
 -4.7729449e-001
 -5.0144848e-001
 -4.7758524e-001
 -4.6386052e-001
 -4.6218366e-001
 -4.7245618e-001
 -4.8163325e-001
 -4.9071938e-001
 -5.1166583e-001
 -5.0752644e-001
 -4.9842447e-001
 -4.9336391e-001
 -5.0027908e-001
 -4.8620695e-001
 -4.4335233e-001
 -4.4764061e-001
 -4.5287463e-001
 -4.3514473e-001
 -4.0659008e-001
 -3.7626323e-001
 -3.5613050e-001
 -3.3117063e-001
 -3.1337476e-001
 -2.8874221e-001
 -2.5832561e-001
 -2.6698889e-001
 -2.4171126e-001
 -1.8077925e-001
 -1.7013410e-001
 -1.5757802e-001
 -1.3615572e-001
 -1.3980112e-001
 -1.4042384e-001
 -1.2808951e-001
 -1.1286351e-001
 -1.0472902e-001
 -1.0064062e-001
 -9.0606307e-002
 -8.7621781e-002
 -7.7686842e-002
 -7.6793101e-002
 -7.7895334e-002
 -7.5997662e-002
 -6.7141053e-002
 -5.4370402e-002
 -6.4607535e-002
 -6.2807365e-002
 -5.4047879e-002
 -2.8427227e-002
 -1.2973517e-002
 -2.4534508e-002
 -3.6995445e-002
 -4.1385416e-002
 -2.7811218e-002
 -3.2272710e-002
 -2.6736977e-002
 -1.5269553e-002
 -1.4849679e-002
  2.4982597e-003
 -1.5151712e-002
 -4.1619369e-002
 -3.8987387e-002
 -3.6374969e-002
 -2.4818907e-002
 -2.7298492e-002
 -3.3739848e-002
 -1.7220965e-002
 -2.1749875e-002
 -2.3252653e-002
 -1.2790853e-002
  5.7422170e-004
  1.0842966e-002
 -1.2832664e-002
 -2.5358685e-002
 -1.9282379e-003
  5.3769278e-003
 -2.7213285e-002
 -3.2646056e-002
 -1.5126848e-002
 -1.2688237e-002
 -2.4211105e-002
 -3.5638263e-002
 -3.9998782e-002
 -3.8346191e-002
 -3.8403024e-003
 -6.4641331e-003
 -2.3008244e-002
 -9.5385055e-003
 -2.2071362e-002
 -3.6492110e-002
 -1.6932293e-002
  3.4647941e-003
  4.7735493e-003
 -1.2850009e-002
 -1.8377487e-002
 -1.8878917e-002
 -3.5309350e-002
 -2.1726429e-002
 -2.8587103e-004
 -1.0888785e-002
 -2.3395721e-002
 -2.6835750e-002
 -2.0286978e-002
 -1.1798520e-002
 -1.9312782e-002
 -1.3817468e-002
  1.4539913e-002
  7.8090799e-003
 -5.8375637e-003
 -3.4372315e-003
 -4.0433701e-003
 -8.6272814e-003
 -2.2592556e-004
  1.1361777e-003
 -7.4711764e-003
 -2.0645004e-003
 -1.2635662e-002
 -7.1847539e-003
  4.1980118e-003
 -5.4256437e-003
 -2.0229260e-003
  3.5689884e-004
  5.7057299e-003
  9.0195957e-003
  3.3436967e-003
 -3.2810482e-003
  1.0828281e-004
  7.4542817e-003
  1.3744835e-002
  4.7869569e-002
  5.0841451e-002
  1.8931462e-002
  2.2139118e-002
  1.9345143e-002
  1.8565929e-002
  2.6756355e-002
  1.6953411e-002
  1.6193935e-002
  5.4818439e-003
 -1.1584803e-003
  6.1989333e-003
  1.0509033e-002
  1.4784299e-002
  2.1016681e-002
  2.9189967e-002
  3.6300303e-002
  2.7417583e-002
  3.2549970e-002
  3.5648247e-002
  4.1708457e-002
  6.6640638e-002
  6.6469892e-002
  7.8249895e-002
  5.2087353e-002
  2.2154076e-002
  4.0268889e-002
  6.1222685e-002
  6.8061182e-002
  6.6874972e-002
  6.3705122e-002
  6.9522892e-002
  6.7324237e-002
  6.6137902e-002
  1.1077131e-001
  9.9266170e-002
  8.4864731e-002
  9.9460067e-002
  9.9990752e-002
  1.1644886e-001
  1.2480193e-001
  1.3009544e-001
  1.3434604e-001
  1.3059078e-001
  1.1491160e-001
  1.0533277e-001
  1.1574740e-001
  1.1910226e-001
  1.1545494e-001
  1.3175222e-001
  1.2699840e-001
  1.1829613e-001
  1.2360423e-001
  1.2587761e-001
  1.3808773e-001
  1.5019390e-001
  1.6618017e-001
  1.6012077e-001
  1.4713468e-001
  1.5715608e-001
  1.4717265e-001
  1.3129092e-001
  1.4242446e-001
  1.5545442e-001
  1.6638123e-001
  1.5829135e-001
  1.4428725e-001
  1.5529077e-001
  1.6719538e-001
  1.5210800e-001
  1.3913100e-001
  1.7903864e-001
  1.8375768e-001
  1.5457154e-001
  1.5649213e-001
  1.5739613e-001
  1.6426313e-001
  1.8401547e-001
  1.9364134e-001
  1.8724776e-001
  1.8687580e-001
  1.8948850e-001
  1.8510232e-001
  1.8373366e-001
  1.6743160e-001
  1.7117541e-001
  1.6990345e-001
  1.4075099e-001
  1.7059055e-001
  2.0217231e-001
  1.6676358e-001
  1.4657735e-001
  1.5941610e-001
  1.5521418e-001
  1.6199635e-001
  1.7867666e-001
  1.4840711e-001
  1.3829809e-001
  1.5914005e-001
  1.5889223e-001
  1.8453453e-001
  1.8705512e-001
  1.7361426e-001
  1.7521591e-001
  1.6584351e-001
  1.6251745e-001
  1.5323754e-001
  1.4900771e-001
  1.4879090e-001
  1.3861163e-001
  1.3647795e-001
  1.3136921e-001
  1.3725254e-001
  1.3810340e-001
  1.3296699e-001
  1.3583509e-001
  1.3070766e-001
  1.2163387e-001
  1.2657254e-001
  1.4042941e-001
  1.1034819e-001
  1.0839418e-001
  1.5823916e-001
  1.6086348e-001
  1.2063673e-001
  9.4677083e-002
  9.8803229e-002
  6.9031206e-002
  7.7344215e-002
  1.2343060e-001
  9.9422370e-002
  7.3614858e-002
  9.0839298e-002
  1.0194400e-001
  1.0100321e-001
  9.4090830e-002
  9.2210862e-002
  9.2334503e-002
  8.9465841e-002
  8.8608947e-002
  1.0468595e-001
  1.0170532e-001
  6.0900787e-002
  6.1259350e-002
  6.2608300e-002
  5.6972260e-002
  6.3330691e-002
  3.5773740e-002
  6.4485292e-003
  3.2137010e-002
  5.6617931e-002
  4.0064189e-002
  3.5594723e-002
  2.8172324e-002
  2.5788611e-002
  3.0394273e-002
  4.2927912e-002
  4.9381636e-002
  4.4825411e-002
  4.2296151e-002
  3.1818325e-002
  3.3375343e-002
  3.2926101e-002
  2.5507497e-002
  2.2136216e-003
  1.5957945e-002
  1.5646099e-002
 -6.5742185e-003
  1.0226984e-002
  9.9595004e-003
  5.7096376e-003
  1.8424074e-002
  1.9082476e-002
  3.0689172e-002
  7.3426895e-003
 -2.6768733e-002
 -5.8262936e-003
 -9.9530998e-003
 -8.0710376e-003
 -9.1924308e-003
 -1.1300879e-002
 -7.4169151e-003
 -6.5527959e-003
  6.2546948e-003
 -7.9327650e-003
 -3.0824240e-003
  1.7662195e-002
 -9.5673931e-003
 -1.9644306e-002
 -9.7207306e-003
 -3.0751609e-002
 -1.8745320e-002
 -3.8494813e-003
 -1.3973521e-002
 -1.2064105e-002
 -1.2162332e-002
 -1.4251784e-002
 -8.3570747e-003
 -8.4863297e-003
 -6.6230646e-003
 -1.0750862e-002
 -1.5841084e-002
 -4.9553273e-003
  2.8532563e-003
 -3.5766754e-004
  2.4324643e-003
 -7.7635057e-004
 -3.7820264e-002
 -4.1695853e-002
 -2.7612719e-002
 -3.1570693e-002
 -2.9520451e-002
 -3.7445642e-002
 -3.9329981e-002
 -4.1198213e-002
 -3.5083175e-002
 -2.5033955e-002
 -2.0046186e-002
 -1.7090942e-002
 -2.7106646e-002
 -2.7081127e-002
 -3.5022746e-002
 -2.8956215e-002
 -2.8914338e-002
 -6.0741356e-002
 -7.1392747e-002
 -4.5106817e-002
 -3.3973429e-002
 -6.9737989e-002
 -7.3339472e-002
 -5.0020229e-002
 -6.2743072e-002
 -5.6438191e-002
 -4.1220399e-002
 -4.4052473e-002
 -3.6901439e-002
 -4.3750844e-002
 -4.6559725e-002
 -3.4406076e-002
 -1.4383960e-002
 -2.1415009e-002
 -4.8306479e-002
 -5.8046654e-002
 -4.4800005e-002
 -2.4689368e-002
 -3.2628166e-002
 -4.1497402e-002
 -5.6268690e-002
 -7.3905564e-002
 -6.7494600e-002
 -5.9142500e-002
 -5.1853119e-002
 -4.9601626e-002
 -4.9359193e-002
 -4.7125784e-002
 -4.9889074e-002
 -4.4661367e-002
 -3.8479494e-002
 -3.5335076e-002
 -3.3211575e-002
 -3.3096616e-002
 -2.8998358e-002
 -2.1945406e-002
 -1.6941672e-002
 -3.1896834e-002
 -3.7766004e-002
 -3.3627362e-002
 -3.5497326e-002
 -4.2330803e-002
 -4.3132040e-002
 -4.4921649e-002
 -4.2711971e-002
 -3.1556253e-002
 -2.7462469e-002
 -2.5393498e-002
 -3.1308276e-002
 -4.3149523e-002
 -3.5970791e-002
 -2.4866378e-002
 -2.3811402e-002
 -2.7744217e-002
 -3.3636199e-002
 -3.1512093e-002
 -3.2392447e-002
 -4.3223992e-002
 -3.6039698e-002
 -7.9993862e-003
 -1.7036927e-002
 -4.7910319e-002
 -5.2636622e-002
 -4.3380291e-002
 -2.4239566e-002
 -2.9156626e-002
 -4.2000155e-002
 -3.2827802e-002
 -2.4725655e-002
 -3.3619694e-002
 -1.9534512e-002
  1.2362027e-002
 -2.2728584e-002
 -3.2634354e-002
 -2.8515796e-002
 -5.0323853e-002
 -4.2075213e-002
 -2.3933960e-002
 -8.9283297e-003
 -2.4918492e-002
 -2.9822539e-002
 -3.0702268e-002
 -3.4561875e-002
 -2.5442406e-002
 -3.7311006e-002
 -3.8126761e-002
 -2.6984103e-002
 -2.1907440e-002
 -4.6749037e-002
 -4.6488747e-002
 -1.8344092e-002
 -1.1343273e-002
 -1.2366909e-002
 -1.7365743e-002
 -2.5311203e-002
 -2.4228085e-002
 -1.8173855e-002
 -3.1091046e-002
 -3.6930620e-002
 -6.0647838e-002
 -2.7402957e-002
  6.5665932e-003
 -3.0451320e-002
 -4.4260126e-002
 -3.5049112e-002
 -2.8900285e-002
 -3.8735563e-002
 -3.8530432e-002
 -2.0399757e-002
  2.5625532e-003
 -1.3503538e-002
 -4.9356232e-002
 -3.9102909e-002
 -7.0225506e-003
  1.9815915e-002
  1.3569138e-002
 -2.9475791e-002
 -5.0258253e-002
 -3.9996428e-002
 -7.9076024e-003
  3.0048370e-003
 -2.1028995e-002
 -3.0923297e-002
 -3.4760566e-002
 -2.0639346e-002
 -2.2567663e-002
 -2.7467482e-002
 -2.5355307e-002
 -2.1268054e-002
 -6.2588728e-003
 -1.5274192e-002
 -1.1268851e-002
  3.6587551e-003
  1.0496656e-002
  9.3107605e-003
  1.2117554e-002
  1.5896585e-002
  5.7012226e-003
 -4.4112899e-003
 -2.8383943e-002
 -3.0250079e-002
 -1.0190371e-002
 -6.2290946e-003
 -2.0226571e-002
 -1.4191163e-002
  5.7377226e-003
  5.5850999e-003
  3.4414223e-003
  3.3066544e-003
  1.0143894e-002
  1.6924584e-002
  2.0661246e-002
  2.8349967e-002
  1.8048292e-002
  1.0817629e-002
  2.1571668e-002
  2.9249028e-002
  2.8895086e-002
  2.6492450e-003
 -1.1431587e-002
 -1.5438204e-002
 -6.4651231e-003
  4.4267931e-004
 -2.8558870e-002
 -3.1429178e-002
 -2.7303962e-002
 -4.2897068e-003
  1.2560791e-002
  6.3669951e-003
  2.0141378e-002
  2.6830819e-002
  1.4542172e-002
 -7.6058574e-003
  2.8189534e-002
  6.1699187e-002
  3.5178247e-002
  2.9786596e-002
  2.5433591e-002
  6.1947031e-002
  5.3343853e-002
  2.7878507e-002
  6.3370198e-002
  4.8774044e-002
  4.5250165e-002
  4.1753211e-002
  5.0233918e-002
  6.4618650e-002
  5.9961055e-002
  6.7289985e-002
  6.8580924e-002
  7.1850416e-002
  7.4094459e-002
  5.7395088e-002
  6.1743884e-002
  7.8005477e-002
  6.8237577e-002
  6.1534525e-002
  4.2932926e-002
  2.9461045e-002
  1.9085582e-002
  4.3650487e-002
  4.8094564e-002
  2.7602643e-002
  2.2215429e-002
  5.9161102e-003
  2.4606019e-002
  2.7207372e-002
  2.7794269e-002
  3.6342193e-002
  4.1830826e-002
  5.2252223e-002
  3.8684492e-002
  4.0164460e-002
  6.0552660e-002
  5.0894533e-002
  4.2309066e-002
  5.1718135e-002
  4.2125863e-002
  3.2610090e-002
  2.2174602e-002
  6.8436510e-003
  6.0042636e-004
 -9.5759109e-003
 -2.4648767e-002
 -2.3663624e-002
 -9.7395117e-003
 -1.2859794e-002
 -1.9938266e-002
 -2.5962810e-002
 -2.7954128e-002
 -2.5945126e-002
 -3.7894842e-002
 -3.4807543e-002
 -1.7802171e-002
 -1.9857911e-002
 -3.1855719e-002
 -2.1844988e-002
 -2.1874908e-002
 -3.1863387e-002
 -3.3802401e-002
 -2.4769984e-002
 -1.7802884e-002
 -4.4753368e-002
 -7.7457922e-002
 -7.9019963e-002
 -6.6624410e-002
 -6.0303862e-002
 -6.3992473e-002
 -8.8563224e-002
 -8.9028889e-002
 -5.6623390e-002
 -4.4399453e-002
 -4.1237545e-002
 -3.7104641e-002
 -5.9894121e-002
 -5.6602208e-002
 -2.4454532e-002
 -2.1450504e-002
 -4.3368335e-002
 -7.0085459e-002
 -6.6705106e-002
 -5.0403817e-002
 -4.5189465e-002
 -5.5951094e-002
 -5.6664226e-002
 -2.9484722e-002
 -5.5309735e-002
 -6.7975397e-002
 -5.0658502e-002
 -5.5391752e-002
 -4.1162655e-002
 -3.3024308e-002
 -4.2878032e-002
 -3.2732050e-002
 -1.1713349e-002
 -1.9747674e-002
 -2.0744688e-002
 -5.7585753e-002
 -6.1259220e-002
 -3.7015651e-002
 -5.7785070e-002
 -5.8465018e-002
 -4.9178754e-002
 -4.6938429e-002
 -4.2723376e-002
 -5.0492529e-002
 -6.9151740e-002
 -5.6783388e-002
 -5.4473610e-002
 -4.8197590e-002
 -2.9024829e-002
 -3.3909845e-002
 -3.6762285e-002
 -3.9590477e-002
 -5.3349460e-002
 -6.2014943e-002
 -6.1644658e-002
 -7.7210082e-002
 -9.2645939e-002
 -1.0795276e-001
 -1.3309013e-001
 -1.4407512e-001
 -1.6990427e-001
 -1.7958232e-001
 -1.8419592e-001
 -1.9972077e-001
 -2.2108760e-001
 -2.3231347e-001
 -2.3945630e-001
 -2.7043452e-001
 -2.1550280e-001
 -1.5105401e-001
 -1.5684042e-001
 -1.6257433e-001
 -1.4335836e-001
 -1.1533161e-001
 -1.0246871e-001
 -7.9748529e-002
 -5.1236024e-002
 -1.1999983e-002
  1.5960724e-002
  2.4770113e-002
  5.8404228e-002
  1.2163849e-001
  1.6244178e-001
  1.9195105e-001
  2.5905691e-001
  3.1265861e-001
  3.6282379e-001
  4.1256653e-001
  4.4495824e-001
  4.5217240e-001
  4.4935316e-001
  4.8836959e-001
  4.7725516e-001
  4.4330946e-001
  4.5543762e-001
  4.6645503e-001
  4.4848506e-001
  4.3861370e-001
  4.1486516e-001
  3.7337004e-001
  3.4116419e-001
  2.7534887e-001
  2.3993886e-001
  2.2970724e-001
  2.1656317e-001
  2.2841619e-001
  2.3717621e-001
  2.4187229e-001
  2.4751701e-001
  2.3318842e-001
  2.0402980e-001
  1.8107733e-001
  1.6726874e-001
  1.6153382e-001
  1.4687636e-001
  1.2237390e-001
  9.3087250e-002
  5.5072890e-002
  2.9317418e-002
  5.7624336e-003
 -7.6420376e-003
 -1.2970342e-002
 -2.9210500e-002
 -6.1252273e-002
 -7.5104664e-002
 -7.8883147e-002
 -1.1151020e-001
 -1.3689632e-001
 -1.6904250e-001
 -1.8697841e-001
 -1.9878684e-001
 -2.2543145e-001
 -2.4089655e-001
 -2.5821973e-001
 -2.8037293e-001
 -3.1129950e-001
 -3.2602906e-001
 -3.5058701e-001
 -3.7294130e-001
 -3.9211326e-001
 -4.2804631e-001
 -4.2184387e-001
 -4.0372770e-001
 -4.3155820e-001
 -4.5416767e-001
 -4.4968811e-001
 -4.5518955e-001
 -4.4768439e-001
 -4.5516447e-001
 -4.6754797e-001
 -4.6686806e-001
 -4.7016191e-001
 -4.6544603e-001
 -4.8067133e-001
 -4.9973977e-001
 -5.0768069e-001
 -4.9362983e-001
 -4.5975921e-001
 -4.4108861e-001
 -4.4446568e-001
 -4.3983289e-001
 -4.2028453e-001
 -3.8992677e-001
 -3.3191862e-001
 -3.1022590e-001
 -3.2953191e-001
 -3.4070151e-001
 -3.0894418e-001
 -2.5154228e-001
 -2.2945752e-001
 -2.1949608e-001
 -1.9765747e-001
 -1.7798216e-001
 -1.7041215e-001
 -1.5692244e-001
 -1.5050861e-001
 -1.4314579e-001
 -1.2787065e-001
 -1.1769511e-001
 -1.0261879e-001
 -9.4633094e-002
 -7.9737652e-002
 -6.3964874e-002
 -6.4252818e-002
 -6.0552086e-002
 -5.5883119e-002
 -4.8262174e-002
 -4.0701351e-002
 -2.9216790e-002
 -3.3759028e-002
 -3.1291091e-002
 -1.5894952e-002
 -1.7553932e-002
 -1.2226847e-002
 -2.0884967e-002
 -2.9471007e-002
 -3.1013941e-002
 -4.9472984e-002
 -3.2922219e-002
 -1.1525538e-002
 -9.2249678e-003
 -2.1880842e-002
 -1.9493341e-002
 -2.1855355e-003
 -8.9202332e-003
 -2.1574374e-002
 -1.1217928e-002
  1.9968824e-002
  4.0930787e-003
 -1.2648288e-002
 -4.3541399e-003
 -4.0942601e-003
 -7.8193553e-003
 -2.2468045e-002
 -3.1348586e-003
  2.0024617e-002
 -1.8209616e-003
 -6.5568778e-003
 -1.1253220e-002
 -2.3877382e-002
 -1.8470625e-002
 -2.1074041e-002
 -7.7203629e-003
 -6.4258012e-003
 -9.1245760e-003
 -1.0804428e-002
  5.4567343e-003
 -4.3080799e-003
 -4.7852989e-002
 -2.1326363e-002
  2.9929542e-003
  5.2041204e-003
  1.5364925e-002
  1.8471476e-002
 -2.3490192e-003
 -2.0010840e-002
 -3.6662007e-003
  1.0553789e-002
  1.7520442e-003
 -2.9935173e-003
 -1.3674935e-002
 -2.6259705e-002
 -3.8834017e-003
  1.7314857e-002
  8.4627849e-003
  6.7937787e-004
  9.8906205e-003
  6.0801480e-003
 -4.6700266e-003
  1.3549730e-002
  2.3653517e-002
  4.7933719e-003
 -2.9571219e-003
  1.4254119e-002
  2.1365805e-002
  2.0452077e-002
  8.5908670e-003
 -1.3132019e-002
 -3.8031716e-003
  3.3335515e-002
  1.9379032e-002
 -1.5377298e-002
  2.0860889e-002
  1.6966629e-002
 -8.3833715e-004
  3.3289965e-002
  2.3319037e-002
  2.5380367e-002
  2.2445148e-002
  5.5911944e-003
  2.6719862e-002
  2.6761583e-002
  3.0786351e-002
  2.8802428e-002
  1.0899968e-002
  1.5054057e-002
  1.0211212e-002
  1.1383708e-002
  1.0555096e-002
  8.7376678e-003
  9.9231835e-003
  2.0062475e-002
  3.8086093e-002
  3.7039570e-002
  3.3013314e-002
  4.1966277e-002
  3.6902641e-002
  4.4826571e-002
  5.9656194e-002
  6.2412377e-002
  8.3070846e-002
  8.1648388e-002
  7.4260034e-002
  1.0875818e-001
  9.0188354e-002
  4.8862156e-002
  5.5676182e-002
  7.3388180e-002
  7.5019050e-002
  7.5638765e-002
  8.5214601e-002
  7.3795898e-002
  6.4460465e-002
  7.0138327e-002
  7.2780275e-002
  7.0419230e-002
  4.6165806e-002
  5.4974506e-002
  1.0055833e-001
  8.9996048e-002
  1.0043162e-001
  1.3069711e-001
  1.1689153e-001
  1.2012578e-001
  1.2432597e-001
  1.0359056e-001
  1.0692338e-001
  1.1520536e-001
  9.9514554e-002
  1.1880579e-001
  1.2698083e-001
  1.2213848e-001
  1.3127471e-001
  1.2539371e-001
  1.2752423e-001
  1.3959251e-001
  1.5653735e-001
  1.4744530e-001
  1.3941891e-001
  1.5435961e-001
  1.5025117e-001
  1.3621258e-001
  1.5415345e-001
  1.6995098e-001
  1.5772865e-001
  1.4858896e-001
  1.4250700e-001
  1.4941700e-001
  1.5626576e-001
  1.5110268e-001
  1.4498107e-001
  1.4189259e-001
  1.4778794e-001
  1.4068358e-001
  1.5952627e-001
  1.6426709e-001
  1.5701295e-001
  1.5877613e-001
  1.5454429e-001
  1.6328874e-001
  1.6598091e-001
  1.7063741e-001
  1.6329935e-001
  1.6796673e-001
  1.6362724e-001
  1.4238743e-001
  1.5218954e-001
  1.6091052e-001
  1.5561216e-001
  1.5035190e-001
  1.5907224e-001
  1.5576507e-001
  1.5447149e-001
  1.6015457e-001
  1.3690454e-001
  1.5268018e-001
  1.8027246e-001
  1.7476819e-001
  1.5834800e-001
  1.4604023e-001
  1.4478298e-001
  1.6145727e-001
  2.0189133e-001
  1.7227460e-001
  1.4488584e-001
  1.5954389e-001
  1.5117074e-001
  1.5580748e-001
  1.4446638e-001
  1.1528663e-001
  1.2916517e-001
  1.4491743e-001
  1.4360539e-001
  1.5823341e-001
  1.2692463e-001
  1.0682219e-001
  1.2970403e-001
  1.2948831e-001
  1.2926965e-001
  1.2506446e-001
  1.3084811e-001
  1.5550186e-001
  1.3015324e-001
  1.1994564e-001
  1.2077198e-001
  1.0266490e-001
  1.0561596e-001
  9.6588042e-002
  9.3605655e-002
  9.2635845e-002
  8.3703147e-002
  8.3803319e-002
  9.7842018e-002
  9.7819501e-002
  9.5801569e-002
  9.7780015e-002
  8.7787633e-002
  8.4844792e-002
  8.3914428e-002
  8.6971918e-002
  9.8964069e-002
  8.9940309e-002
  7.9990829e-002
  7.9082561e-002
  6.1248113e-002
  7.1442130e-002
  6.5615344e-002
  4.8878446e-002
  5.8169630e-002
  5.9415051e-002
  5.0688636e-002
  5.5973888e-002
  6.4201130e-002
  5.2440239e-002
  5.7703462e-002
  4.6986609e-002
  4.7310084e-002
  5.8583608e-002
  4.6856548e-002
  3.8210835e-002
  2.7642044e-002
  4.1059747e-002
  4.7394366e-002
  4.2719979e-002
  4.7044819e-002
  3.7389376e-002
  2.5819115e-002
  1.7329593e-002
  1.7871329e-002
  2.9362271e-002
  2.1835402e-002
  1.3372724e-002
  2.0912532e-002
  2.6397471e-002
  1.9885119e-002
  7.4491996e-003
 -4.8860190e-003
  8.7725497e-003
  2.4310238e-002
 -3.1045096e-003
 -1.3365381e-002
 -1.6327591e-003
 -6.9270979e-003
 -5.2073218e-003
  3.4691653e-003
  1.0082061e-002
 -9.2536745e-003
 -1.9468614e-002
 -2.6612406e-002
 -3.1705821e-002
 -2.2814608e-002
 -3.4910027e-002
 -1.7029000e-002
 -1.7220585e-002
 -8.4476160e-003
  1.6187646e-002
 -8.1790557e-003
 -2.5375666e-002
 -4.3427459e-002
 -5.4359604e-002
 -5.1258616e-002
 -4.6190169e-002
 -5.3113169e-002
 -6.3962112e-002
 -2.9905249e-002
 -2.0028217e-002
 -3.3137752e-002
 -4.9127408e-002
 -5.3034540e-002
 -3.4002858e-002
 -4.7991149e-002
 -5.1905117e-002
 -5.1802415e-002
 -6.5642149e-002
 -5.8453230e-002
 -4.2358666e-002
 -3.9341685e-002
 -3.4356911e-002
 -3.0408309e-002
 -4.0434285e-002
 -3.6434945e-002
 -2.6492317e-002
 -3.5552917e-002
 -4.0555288e-002
 -3.7548824e-002
 -3.1578620e-002
 -2.9640431e-002
 -3.2697260e-002
 -4.3695874e-002
 -6.2570973e-002
 -5.0417278e-002
 -2.9398758e-002
 -4.1416550e-002
 -5.1343521e-002
 -4.6249679e-002
 -3.3229326e-002
 -2.9278065e-002
 -3.0338264e-002
 -1.4459032e-002
 -1.1656505e-002
 -2.5807479e-002
 -2.1916240e-002
 -2.4032117e-002
 -1.8163270e-002
 -1.3874680e-003
 -1.5622401e-002
 -2.8745136e-002
 -2.9809384e-002
 -2.6880924e-002
 -3.2939244e-002
 -4.2931148e-002
 -4.7861004e-002
 -3.5819184e-002
 -2.7858825e-002
 -2.7930437e-002
 -2.3021601e-002
 -2.2136333e-002
 -2.3249957e-002
 -1.7382960e-002
 -1.4551645e-002
 -2.1702615e-002
 -2.4811364e-002
 -3.2873966e-002
 -2.1947961e-002
 -9.1193211e-003
  6.1644833e-004
 -4.6665374e-003
 -1.5882178e-002
 -2.4018459e-002
 -6.1965106e-002
 -6.4743376e-002
 -1.4714435e-002
  1.0446777e-003
 -1.9178192e-002
 -1.8321671e-002
 -5.5212629e-003
  2.0278287e-004
 -9.0591012e-003
 -1.8245527e-002
 -1.2418247e-002
 -1.9585509e-002
  1.1912220e-003
  2.5781095e-002
  6.3487297e-003
 -2.9665070e-003
 -1.2206056e-002
 -2.3362032e-002
 -2.4467549e-002
 -1.9588351e-002
 -8.7735329e-003
 -3.0269246e-003
 -6.2908977e-003
 -3.5531185e-003
 -3.3702993e-002
 -4.9663152e-002
 -2.6651475e-002
 -3.8684233e-002
 -1.4765340e-002
  8.9579371e-003
  6.1748100e-004
 -1.2634883e-002
 -2.6774935e-002
 -1.2913736e-002
 -1.4104541e-002
 -4.3307505e-003
  4.3668182e-003
 -4.9336913e-003
 -1.0174937e-002
 -1.9357161e-002
 -2.0496988e-002
 -2.2623266e-002
 -3.2699183e-002
 -3.4724946e-002
 -3.4741722e-002
 -3.8741356e-002
 -3.6732112e-002
 -4.8681255e-002
 -5.9535705e-002
 -3.0463800e-002
 -1.7563548e-002
 -1.2735936e-002
 -3.9642797e-003
 -1.9166424e-002
 -2.3289223e-002
 -5.4681778e-003
 -9.7030585e-003
 -1.1911709e-002
 -9.1229091e-003
 -4.5197374e-002
 -3.4168434e-002
  1.6685541e-003
 -1.6282735e-003
  1.0768095e-003
 -1.7154759e-002
 -2.5278177e-002
 -1.9392199e-002
 -2.8492767e-002
 -3.0547164e-002
 -4.4535100e-002
 -4.2473231e-002
 -3.3455976e-002
 -3.5466769e-002
 -3.1485013e-002
 -1.5584412e-002
 -2.2719573e-002
 -3.6767461e-002
 -2.3810359e-002
 -3.0876961e-002
 -3.5893438e-002
 -3.7880477e-002
 -4.5825909e-002
 -4.0758580e-002
 -3.8719505e-002
 -5.2630741e-002
 -4.8500685e-002
 -2.9464684e-002
 -2.5522353e-002
 -2.1611865e-002
 -2.3708512e-002
 -3.4750819e-002
 -3.7734913e-002
 -4.7665130e-002
 -4.1578557e-002
 -2.6577672e-002
 -3.2612967e-002
 -3.5610564e-002
 -3.6591097e-002
 -3.9554637e-002
 -4.2493062e-002
 -4.3414667e-002
 -3.8352295e-002
 -3.9305878e-002
 -4.0250776e-002
 -3.7203410e-002
 -2.2229288e-002
 -1.7336305e-002
 -2.6425817e-002
 -2.2493798e-002
 -2.7556723e-002
 -2.6602323e-002
 -1.3704402e-002
  7.0553461e-003
  3.1628333e-002
  2.2833181e-004
 -3.9878507e-002
 -7.1689287e-002
 -7.8340401e-002
 -3.0160207e-002
 -2.4201269e-002
 -5.0159555e-002
 -5.7978057e-002
 -6.7722891e-002
 -4.2529536e-002
 -1.7541113e-002
 -2.4625699e-002
 -2.6672398e-002
 -8.7837715e-003
  9.9129093e-004
 -2.2178797e-002
 -8.3106454e-003
  9.4276430e-003
  1.9052987e-002
  3.2582235e-002
  2.6081325e-002
  1.1665079e-002
  1.7283997e-002
  2.0864205e-002
  1.8438634e-002
  1.4040079e-002
  6.6889148e-003
  2.1307119e-002
  1.3894819e-002
  2.0484913e-002
  1.1085586e-002
  3.7541439e-003
  8.4329637e-003
  2.1179083e-003
 -3.1500828e-003
  1.5837399e-003
  2.3208771e-002
  4.8196717e-003
 -7.4442235e-003
 -6.8583338e-004
  1.0374040e-003
  4.7379229e-003
 -3.5432194e-003
 -4.7856150e-003
  1.1908171e-002
  2.4481055e-002
  1.1056422e-002
  1.4671131e-002
  2.3234904e-002
  2.1768435e-002
  1.3341487e-002
 -1.3939597e-002
 -2.7054931e-002
 -2.5123986e-002
 -1.0261647e-002
  6.4709222e-003
 -3.8233377e-003
 -9.0541975e-003
 -3.3164568e-002
 -5.8073016e-002
 -1.7046630e-002
 -1.0216223e-002
 -3.5310638e-002
 -5.2231871e-002
 -5.9054367e-002
 -5.4864554e-002
 -8.4568269e-002
 -1.0107993e-001
 -8.9568273e-002
 -7.9143999e-002
 -6.4819043e-002
 -6.5547940e-002
 -8.2203489e-002
 -8.1790088e-002
 -8.3369469e-002
 -6.8003108e-002
 -6.0727653e-002
 -6.7452615e-002
 -7.0137033e-002
 -8.9727824e-002
 -6.8323686e-002
 -6.1035200e-002
 -7.8702142e-002
 -7.0328791e-002
 -1.1181701e-001
 -1.2208953e-001
 -8.7458569e-002
 -1.0788277e-001
 -1.1021035e-001
 -7.8654709e-002
 -7.3248152e-002
 -7.3858990e-002
 -6.9483056e-002
 -8.0079338e-002
 -9.5566027e-002
 -8.5029598e-002
 -7.7564365e-002
 -6.8165943e-002
 -5.5854543e-002
 -6.7543791e-002
 -7.9135375e-002
 -1.0656416e-001
 -9.7912739e-002
 -7.3394456e-002
 -9.0902266e-002
 -9.5317273e-002
 -8.4754558e-002
 -9.1205842e-002
 -1.0058915e-001
 -9.2962103e-002
 -1.0332066e-001
 -7.7738622e-002
 -7.5268994e-002
 -1.0169832e-001
 -9.0063873e-002
 -8.3501108e-002
 -7.2009733e-002
 -7.2560784e-002
 -8.2068071e-002
 -7.3568643e-002
 -6.3144457e-002
 -7.4713283e-002
 -7.6225998e-002
 -6.6768858e-002
 -7.3321262e-002
 -1.0272342e-001
 -1.0300053e-001
 -8.9329245e-002
 -9.8672499e-002
 -9.9968792e-002
 -1.1419784e-001
 -1.2332715e-001
 -1.1544727e-001
 -1.1360328e-001
 -1.3168856e-001
 -1.4563785e-001
 -1.4751726e-001
 -1.5535166e-001
 -1.6012897e-001
 -1.7880435e-001
 -2.1723897e-001
 -2.3742563e-001
 -2.3353741e-001
 -2.4660329e-001
 -2.4262348e-001
 -2.3468421e-001
 -2.4472797e-001
 -2.2878762e-001
 -2.0201466e-001
 -1.8242482e-001
 -1.6996001e-001
 -1.3667706e-001
 -9.0714531e-002
 -6.8030140e-002
 -4.1544928e-002
 -2.8221217e-002
 -1.5005096e-002
  7.8772074e-002
  1.3294005e-001
  1.5977168e-001
  1.9434619e-001
  2.1867283e-001
  2.7067889e-001
  2.8839028e-001
  3.1789834e-001
  3.6308921e-001
  3.8897652e-001
  4.0667211e-001
  4.1225873e-001
  4.0981877e-001
  4.0738514e-001
  4.1192915e-001
  4.1841405e-001
  4.0790156e-001
  3.9546952e-001
  3.7715038e-001
  3.2112396e-001
  2.7052423e-001
  2.5618154e-001
  2.3895966e-001
  2.0792775e-001
  1.8909324e-001
  1.8534473e-001
  1.9456719e-001
  2.0569929e-001
  1.9183565e-001
  1.8206227e-001
  1.5045253e-001
  1.1511227e-001
  1.0993390e-001
  8.5871702e-002
  9.3871951e-002
  8.8856572e-002
  4.9022254e-002
  2.3454285e-002
  1.1040976e-002
 -4.2592659e-003
 -2.9393652e-002
 -3.8387439e-002
 -4.2327224e-002
 -3.5278772e-002
 -6.7127338e-002
 -1.1763576e-001
 -1.3585870e-001
 -1.6986285e-001
 -2.0059588e-001
 -2.2509578e-001
 -2.5038398e-001
 -2.6051872e-001
 -2.6159895e-001
 -2.8058805e-001
 -3.1136350e-001
 -3.3390983e-001
 -3.5426893e-001
 -3.6648258e-001
 -3.7460053e-001
 -3.8164368e-001
 -3.8861646e-001
 -3.9452327e-001
 -3.9937259e-001
 -4.3205409e-001
 -4.7341691e-001
 -4.5965082e-001
 -4.6490383e-001
 -4.8902024e-001
 -4.9997605e-001
 -5.0584569e-001
 -5.0567460e-001
 -5.0648344e-001
 -5.1324367e-001
 -5.2092684e-001
 -5.1259474e-001
 -5.1925156e-001
 -4.8699568e-001
 -4.5797424e-001
 -4.6502656e-001
 -4.4611141e-001
 -4.3928601e-001
 -4.5939029e-001
 -4.2254744e-001
 -3.4117509e-001
 -3.3216074e-001
 -3.3615477e-001
 -3.1421041e-001
 -2.9840935e-001
 -2.8870188e-001
 -2.5715317e-001
 -2.4079127e-001
 -2.3849662e-001
 -2.2127308e-001
 -2.0816542e-001
 -1.7523873e-001
 -1.5552095e-001
 -1.4093750e-001
 -1.2148785e-001
 -1.1115508e-001
 -8.6959200e-002
 -7.1920134e-002
 -6.3971712e-002
 -5.9072605e-002
 -7.0144790e-002
 -7.8135139e-002
 -6.6138211e-002
 -6.6186731e-002
 -6.5235461e-002
 -5.7317178e-002
 -6.3403079e-002
 -5.8480866e-002
 -3.6665275e-002
 -3.9923106e-002
 -4.4147559e-002
 -3.6383838e-002
 -4.1627803e-002
 -3.6867140e-002
 -3.2142836e-002
 -3.2434268e-002
 -3.0729087e-002
 -2.3060055e-002
 -2.5410644e-002
 -2.2760299e-002
  4.7680847e-003
  1.5142231e-002
  9.4979459e-003
 -8.2772703e-005
  6.3506559e-003
 -1.7144482e-002
 -4.0445595e-002
 -2.5709141e-002
 -2.3041785e-002
  1.7450250e-002
  2.9726714e-002
  1.1030168e-002
  4.4383274e-003
 -9.0697204e-003
 -8.5229971e-003
 -6.9831758e-003
  2.3426879e-002
  2.2715889e-002
  1.5040004e-002
  2.0374501e-002
  1.9690660e-002
  2.1004940e-002
  1.1354210e-002
  5.7669991e-003
 -1.7651494e-003
  1.7206688e-003
  2.7089199e-002
  4.0299955e-002
  2.0537915e-002
  2.9299484e-003
  6.3812072e-003
  4.8259044e-003
  2.2886410e-003
  1.5707895e-002
  2.5034686e-002
  3.6277582e-002
  3.2490176e-002
  2.3754516e-002
  2.7041713e-002
  3.0302517e-002
  2.6565706e-002
  1.6884521e-002
  1.8238248e-002
  2.6513207e-003
  1.5078432e-002
  3.4376152e-002
  2.9614645e-002
  1.8917039e-002
  1.7270781e-002
  1.3646984e-002
  4.0783233e-003
  2.3470354e-002
  2.2786369e-002
  1.5137275e-002
  2.0498349e-002
  3.3783525e-002
  4.2976725e-002
  4.6119288e-002
  5.2223708e-002
  4.2343392e-002
  3.8519239e-002
  2.6759209e-002
  2.0075327e-002
 -7.4671816e-003
 -7.8934773e-003
  4.9447776e-002
  6.3496083e-002
  6.0498420e-002
  3.4618825e-002
  2.4885489e-002
  2.5191305e-002
  2.6491053e-002
  3.7739694e-002
  3.9933341e-002
  4.5096794e-002
  5.4201502e-002
  5.7255896e-002
  5.0325722e-002
  4.9427302e-002
  4.6544118e-002
  5.4639241e-002
  5.2708662e-002
  4.9797544e-002
  5.2885326e-002
  5.2959722e-002
  6.1996208e-002
  4.9048191e-002
  4.1185242e-002
  4.5337376e-002
  5.3438989e-002
  6.1473901e-002
  6.1475155e-002
  5.9483851e-002
  7.5434419e-002
  9.3245170e-002
  9.0990411e-002
  1.1066222e-001
  1.2419536e-001
  8.5827981e-002
  6.3707149e-002
  8.9569691e-002
  1.0924363e-001
  1.0983215e-001
  1.0045440e-001
  9.5134813e-002
  8.6869061e-002
  1.0157500e-001
  1.1317082e-001
  9.7779857e-002
  9.1475803e-002
  7.9246011e-002
  9.5000059e-002
  1.1958645e-001
  1.2703865e-001
  1.2944733e-001
  1.3980037e-001
  1.4608164e-001
  1.4334467e-001
  1.2867556e-001
  1.2706996e-001
  1.3842110e-001
  1.2378240e-001
  1.4013336e-001
  1.6033065e-001
  1.3653876e-001
  1.2688053e-001
  1.3422844e-001
  1.3254969e-001
  1.3785260e-001
  1.4808809e-001
  1.6022775e-001
  1.6230477e-001
  1.5440133e-001
  1.5253375e-001
  1.7358308e-001
  1.7752510e-001
  1.6051591e-001
  1.6156761e-001
  1.7555297e-001
  1.8941902e-001
  1.8026046e-001
  1.6718802e-001
  1.6517266e-001
  1.5818958e-001
  1.4428781e-001
  1.4941788e-001
  1.6645266e-001
  1.6143353e-001
  1.6043444e-001
  1.7138977e-001
  1.7826695e-001
  1.8010317e-001
  1.6399282e-001
  1.5697257e-001
  1.6693553e-001
  1.7780806e-001
  1.7962330e-001
  1.8141837e-001
  1.6925070e-001
  1.6713653e-001
  1.8296095e-001
  1.7773652e-001
  1.8350440e-001
  1.6531788e-001
  1.5424643e-001
  1.6915440e-001
  1.6003369e-001
  1.5397045e-001
  1.4795217e-001
  1.4894998e-001
  1.6089009e-001
  1.6675228e-001
  1.6559012e-001
  1.7040781e-001
  1.6820954e-001
  1.4411417e-001
  1.5705985e-001
  1.5694810e-001
  1.3990206e-001
  1.5585593e-001
  1.4378922e-001
  1.3878805e-001
  1.3780711e-001
  1.1193234e-001
  1.3008547e-001
  1.4011894e-001
  1.2417252e-001
  1.2827070e-001
  1.2735187e-001
  1.2743248e-001
  1.2053713e-001
  9.0788605e-002
  9.6137160e-002
  1.5023831e-001
  1.4812175e-001
  1.2709560e-001
  1.2515950e-001
  1.1526803e-001
  1.1939642e-001
  1.1552004e-001
  1.3158974e-001
  1.1366310e-001
  8.0940841e-002
  8.8319712e-002
  9.8623165e-002
  9.8880188e-002
  9.4152421e-002
  1.0738656e-001
  9.5611426e-002
  6.8990926e-002
  4.9557198e-002
  6.3145627e-002
  7.7616853e-002
  5.0139307e-002
  4.9774226e-002
  7.2316337e-002
  8.1725062e-002
  7.5119743e-002
  5.9602847e-002
  5.4169921e-002
  5.7742794e-002
  4.8337830e-002
  4.4983615e-002
  4.0659462e-002
  4.0352960e-002
  3.6064041e-002
  3.7784441e-002
  3.4510027e-002
  2.7277646e-002
  3.1058455e-002
  2.0864688e-002
  3.3659377e-002
  3.2405704e-002
  2.2198083e-002
  4.2946208e-002
  3.6633877e-002
  1.5433384e-002
  4.8184516e-002
  6.7719527e-002
  4.3272792e-002
  3.5954840e-002
  2.2720085e-002
  2.6523130e-002
  2.2326953e-002
  1.3184806e-002
  1.3080082e-002
  4.0126293e-003
  1.4937235e-002
  3.9714660e-002
  3.1423338e-002
  1.1247884e-002
  8.1673430e-003
 -6.8391539e-003
 -2.8005843e-003
 -3.7744811e-003
  7.2105325e-003
  2.4080892e-002
  1.9898511e-002
 -1.0143866e-002
 -3.3964889e-002
  4.1559878e-003
  6.1124984e-003
  1.0814561e-003
 -1.9167085e-003
 -1.5845264e-002
 -3.3643051e-002
 -5.0298320e-002
 -1.9012372e-002
  1.0634670e-003
 -9.3476470e-004
 -1.0883876e-002
 -1.2784067e-002
 -9.6887930e-003
 -1.1598035e-002
 -3.5322556e-003
 -1.5077395e-003
 -4.9564359e-004
  4.4917940e-003
 -3.5084593e-003
 -8.4554911e-003
  2.5726507e-003
 -1.1387066e-002
 -1.7265054e-002
 -1.4131287e-002
 -3.9903887e-002
 -3.9570952e-002
 -2.0317249e-002
 -4.2079940e-003
 -1.1770575e-003
 -1.6097134e-002
 -3.1890595e-002
 -2.4648079e-002
 -3.2402506e-002
 -1.6190756e-002
  1.7815264e-002
  6.7269956e-003
  5.6881961e-003
  4.6576999e-003
 -1.3440454e-003
 -2.1239328e-002
 -1.5077742e-002
  3.9807264e-003
  5.9528824e-003
  3.9777636e-002
  3.1496555e-002
 -2.0537646e-002
 -3.4301399e-002
 -3.0025207e-002
 -1.7815737e-002
 -5.7054885e-003
 -6.6538191e-004
  3.3376401e-003
 -7.6307301e-003
 -4.5665139e-003
  1.4605181e-003
  7.4382291e-003
  7.3913988e-003
  2.3651871e-003
  1.1322643e-002
  1.4231064e-002
  1.0143902e-002
  3.1021036e-003
  3.0890972e-003
  1.3035128e-002
  8.9567502e-003
  9.8909298e-003
  1.2808942e-002
  1.7600094e-003
  5.7399001e-003
  6.6993408e-003
 -4.3001402e-003
 -6.2464225e-003
  1.5725098e-002
  1.7598374e-002
  1.8459830e-002
  2.8276745e-002
  3.0045207e-002
  2.1839148e-002
 -4.2268383e-003
  2.7852300e-003
  2.7685301e-003
  1.5698602e-002
  2.3542894e-002
 -5.4667864e-004
  5.4378055e-003
  1.5356770e-002
  1.9218676e-002
  1.0101588e-002
  1.3009517e-002
  1.8880917e-002
  2.6695456e-002
  9.5475832e-003
  6.4822050e-003
  3.6306459e-002
  1.4098627e-002
  2.0953056e-002
  2.4762990e-002
  1.2606441e-002
  9.5119462e-003
  1.9389135e-002
  4.1135717e-002
  1.7887405e-002
  1.8730203e-002
  2.6536753e-002
  1.7348169e-002
  1.4209491e-002
  2.0059070e-002
  1.6896956e-002
  1.0772354e-002
  1.3660533e-002
  1.3536863e-002
  2.5364527e-002
  3.2115053e-002
  3.2833817e-002
  3.0557816e-002
  2.8299321e-002
  3.3029588e-002
  3.1744568e-002
  2.4493482e-002
  2.5267998e-002
  2.8027052e-002
  1.9807574e-002
  1.5638153e-002
  1.4489910e-002
  1.2354567e-002
  9.2402643e-003
  7.1469170e-003
  7.0621509e-003
  2.9941239e-003
  4.9345753e-003
  7.8547969e-003
  1.2742583e-002
  1.1614453e-002
  1.2486857e-002
  1.8331121e-002
  2.1139167e-002
  3.1890665e-002
  3.7573559e-002
  5.3642723e-003
 -8.6557105e-003
  9.3080219e-003
  6.2104773e-003
  5.1297366e-003
 -6.8974020e-003
 -4.0735981e-002
 -2.7489180e-002
  1.2539524e-002
  1.1408373e-002
 -3.6566835e-003
 -1.6682033e-003
  3.1176972e-002
  1.8936780e-002
 -1.2126268e-002
 -4.0948219e-003
 -1.0071676e-002
  9.8940478e-003
  4.5630542e-002
  3.6257538e-002
  3.5922955e-002
  4.4552903e-002
 -4.6517508e-003
 -1.9593373e-002
 -5.5311071e-003
 -8.5141243e-003
 -8.4848915e-003
 -1.1443459e-002
 -3.4226476e-003
 -9.4100839e-003
 -1.2360675e-002
 -5.3278245e-003
  2.6434768e-003
 -3.3932675e-003
 -7.3888687e-003
  1.3545905e-002
  7.4195319e-003
  8.3141888e-003
  1.1192924e-002
  1.2055803e-002
  2.0878314e-002
  1.2697491e-002
  1.2550215e-002
  1.3399483e-002
  1.0257598e-002
  9.1327190e-003
  7.0206799e-003
  6.9173330e-003
  2.8308357e-003
 -1.2224952e-003
  1.7285308e-003
 -4.3079112e-003
 -4.3195835e-003
 -3.4755031e-004
 -5.3712633e-003
 -2.3866434e-003
  1.5694088e-003
  9.4765292e-003
  4.3717854e-003
 -1.7621885e-002
 -3.9435300e-002
 -1.7249436e-002
  1.8698125e-002
  9.5353432e-003
 -7.5202245e-003
 -1.2485402e-002
 -1.6413813e-002
  1.6001792e-003
  6.5199426e-003
 -1.2502574e-002
 -1.2447125e-002
 -1.3387763e-002
 -3.7775686e-004
  1.1529844e-002
  8.4010012e-003
  6.2932117e-003
  1.9140850e-002
  1.5948196e-002
  1.4772763e-002
  2.7548943e-002
  1.3330186e-002
  4.1055030e-002
  4.4649973e-002
  1.9332654e-002
  2.7086331e-002
  3.1787825e-002
  5.0392294e-002
  5.4900138e-002
  3.4471510e-002
  1.4208562e-002
  3.7930379e-002
  6.1456789e-002
  3.3997507e-002
  4.1618018e-002
  3.0252456e-002
  2.1966309e-002
  4.3624075e-002
  3.9209601e-002
  3.6821497e-002
  4.7398213e-002
  5.6890741e-002
  3.3438703e-002
  2.8103320e-002
  1.2851344e-002
 -7.2561184e-003
 -2.3015853e-003
 -8.3426579e-003
 -7.3629689e-003
  3.5677603e-003
  7.4374416e-003
  5.2995778e-003
  5.1705858e-003
  2.2968505e-002
  2.6677250e-002
  5.8239841e-002
  8.2570858e-002
  5.6904741e-002
  5.3356181e-002
  3.2904216e-002
  3.1540263e-002
  2.9190230e-002
  2.4866352e-002
  2.3564427e-002
  1.1317138e-002
  2.9046433e-002
  1.2768795e-002
 -1.5327316e-002
 -2.6263125e-002
 -2.2170370e-002
 -4.5995917e-002
 -6.8629503e-002
 -5.5223478e-002
 -5.6864029e-002
 -5.5501813e-002
 -5.1161422e-002
 -4.8846864e-002
 -2.7627673e-002
 -8.5730968e-003
 -2.1543187e-002
 -3.4406763e-002
 -3.5213417e-002
 -2.7049405e-002
 -2.3930993e-002
 -2.2829322e-002
 -1.7752516e-002
 -4.7573490e-002
 -6.9182063e-002
 -7.3681515e-002
 -6.5195186e-002
 -5.2792657e-002
 -5.1444914e-002
 -5.0106676e-002
 -6.0728751e-002
 -5.5327689e-002
 -5.1960935e-002
 -3.8661123e-002
 -2.7460749e-002
 -4.2244713e-002
 -2.0058139e-002
 -2.6933678e-002
 -4.8690840e-002
 -3.7403845e-002
 -3.5171186e-002
 -3.5943487e-002
 -4.6667478e-002
 -4.0372033e-002
 -3.8110484e-002
 -3.5866310e-002
 -2.8659923e-002
 -3.1470688e-002
 -2.2306728e-002
 -2.7159748e-002
 -4.4919082e-002
 -5.1576921e-002
 -5.2203320e-002
 -3.5892625e-002
 -4.5607715e-002
 -3.9307522e-002
 -3.1065845e-002
 -5.2767750e-002
 -1.9515876e-002
 -2.5375577e-002
 -2.8198931e-002
 -1.6059821e-002
 -4.3855686e-002
 -3.8558122e-002
 -4.5253534e-002
 -6.4839547e-002
 -6.0361671e-002
 -4.2971732e-002
 -3.9665278e-002
 -5.1323175e-002
 -4.8941478e-002
 -4.9565409e-002
 -6.0141696e-002
 -6.0670537e-002
 -7.3143938e-002
 -8.6508878e-002
 -1.0573713e-001
 -1.1882926e-001
 -1.1189234e-001
 -1.1496745e-001
 -1.2996444e-001
 -1.4483447e-001
 -1.2372554e-001
 -1.3365805e-001
 -1.8832053e-001
 -2.0866902e-001
 -2.0793013e-001
 -1.8826806e-001
 -1.7971530e-001
 -1.6325912e-001
 -1.4693189e-001
 -1.7554877e-001
 -1.5014686e-001
 -1.2893107e-001
 -9.6929304e-002
 -9.4151580e-003
  1.9621560e-002
  2.9498220e-002
  4.9252343e-002
  8.4777930e-002
  1.2498990e-001
  1.5092641e-001
  1.9755992e-001
  2.4480156e-001
  2.8368162e-001
  3.3119751e-001
  3.7034664e-001
  4.1015920e-001
  4.4664478e-001
  4.6289897e-001
  4.7302924e-001
  4.8405661e-001
  4.8601430e-001
  4.9192310e-001
  4.9278733e-001
  4.8964408e-001
  4.7953846e-001
  4.5555638e-001
  4.3275059e-001
  3.8920234e-001
  3.2707445e-001
  2.8038159e-001
  2.5497454e-001
  2.3076203e-001
  2.0773508e-001
  1.8588476e-001
  1.8810794e-001
  2.0325279e-001
  1.9536058e-001
  1.7358305e-001
  1.6591975e-001
  1.5034564e-001
  1.1796276e-001
  9.6794933e-002
  6.6833085e-002
  6.5994453e-002
  6.0180230e-002
  4.3455860e-002
  6.2718573e-002
  3.8997103e-002
  5.2897224e-004
 -2.7687783e-003
 -1.7991059e-002
 -4.3048060e-002
 -5.9932264e-002
 -8.2652574e-002
 -9.6221951e-002
 -1.3059186e-001
 -1.6965662e-001
 -1.9744207e-001
 -2.2698622e-001
 -2.3636381e-001
 -2.4964107e-001
 -2.6578975e-001
 -2.9275304e-001
 -3.1251533e-001
 -3.2115119e-001
 -3.3866936e-001
 -3.6698839e-001
 -3.8709684e-001
 -3.9208981e-001
 -4.0200875e-001
 -4.1980073e-001
 -4.3145812e-001
 -4.4300604e-001
 -4.5245319e-001
 -4.6081227e-001
 -4.7307138e-001
 -4.7326374e-001
 -4.7742241e-001
 -4.8352298e-001
 -4.8358211e-001
 -4.9557540e-001
 -4.9849087e-001
 -4.8244356e-001
 -4.6551527e-001
 -4.5667687e-001
 -4.3494850e-001
 -4.1338299e-001
 -3.8899198e-001
 -3.6379117e-001
 -3.5671015e-001
 -3.2776486e-001
 -3.2394246e-001
 -3.0918513e-001
 -2.6764826e-001
 -2.5930641e-001
 -2.3907277e-001
 -2.1700425e-001
 -1.8813706e-001
 -1.6746630e-001
 -1.7384780e-001
 -1.7220353e-001
 -1.6160324e-001
 -1.4012869e-001
 -1.0089816e-001
 -7.3935253e-002
 -6.7107785e-002
 -9.8177627e-002
 -9.0149302e-002
 -4.9318151e-002
 -3.8695662e-002
 -2.4174481e-002
 -5.5582153e-002
 -4.4902588e-002
 -4.7254940e-002
 -7.0499811e-002
 -4.8735955e-002
 -5.1049436e-002
 -3.8403076e-002
 -4.0796715e-002
 -3.1217903e-002
 -6.7771322e-003
 -1.7391914e-002
 -2.8914558e-002
 -1.9427371e-002
 -1.3004128e-002
 -2.5554453e-002
 -2.2066169e-002
 -4.6623244e-003
 -1.4289326e-002
 -2.4832354e-002
 -1.6365488e-002
 -1.1950216e-002
 -2.0516693e-002
 -2.3036323e-002
 -3.1509301e-002
 -4.5886667e-002
 -4.0226164e-002
 -3.6601685e-002
 -2.7029472e-002
 -1.6537989e-002
 -2.0073657e-002
 -1.6607693e-002
  7.7386929e-004
  1.0836631e-003
 -6.5756131e-003
 -1.0187703e-002
 -1.4765092e-002
 -1.1336598e-002
 -9.9268271e-003
 -8.5275119e-003
 -1.1122227e-002
 -1.6682327e-002
 -2.6179282e-002
 -2.9621546e-002
 -2.4070792e-002
 -2.3543380e-002
 -2.4014640e-002
 -2.6472292e-002
 -2.2932782e-002
 -1.9420679e-002
 -1.9919488e-002
 -1.4437362e-002
 -1.3978322e-002
 -1.5513602e-002
 -8.0719031e-003
 -3.6777112e-003
 -2.1228427e-002
 -2.0707896e-002
 -1.8198337e-002
 -1.8695613e-002
  1.3677412e-002
  3.9581330e-003
 -2.4603200e-002
 -3.2015430e-002
 -2.6418446e-002
 -3.3812288e-002
 -3.9151940e-002
 -4.1458110e-002
 -1.7849731e-002
  2.9468728e-002
 -1.6218903e-002
 -4.6593093e-002
 -2.7917291e-002
 -2.6322788e-002
  1.8084242e-002
  2.2292276e-002
 -1.2374266e-002
 -2.0862650e-002
 -1.4341556e-002
  9.4760426e-005
 -4.5082985e-003
 -2.1014185e-003
  2.8668309e-004
 -5.3111492e-003
 -5.8826867e-003
 -6.4485216e-003
 -3.0250650e-003
 -7.5958910e-003
 -1.2128255e-002
 -7.6591857e-003
 -2.2296533e-003
  5.1482118e-003
  2.5073891e-003
  1.8807229e-003
  1.1218998e-002
  1.5501873e-002
  7.7992112e-003
  9.1232397e-003
  1.4420595e-002
  9.7159634e-003
  1.3017543e-002
  2.7247476e-002
  3.6381479e-002
  3.4485482e-002
  2.4637439e-002
  9.8904035e-003
  2.4395976e-004
  4.6198644e-003
  1.6927905e-002
  3.1127396e-002
  1.8321186e-002
  1.1595321e-002
  3.4802002e-002
  3.5908736e-002
  4.5969182e-002
  5.5946663e-002
  4.4927541e-002
  4.3956863e-002
  4.6977081e-002
  5.4951366e-002
  5.6884003e-002
  3.8881667e-002
  3.5964573e-002
  6.6931654e-002
  5.5816154e-002
  2.6864191e-002
  3.5993168e-002
  3.8075768e-002
  6.3046640e-002
  8.6816126e-002
  9.0471072e-002
  8.5130744e-002
  9.3774643e-002
  1.0832091e-001
  1.1179043e-001
  1.1024906e-001
  9.9754205e-002
  1.1722784e-001
  1.2360046e-001
  1.2195032e-001
  1.2728161e-001
  1.2161080e-001
  1.1399115e-001
  1.1638968e-001
  1.2673260e-001
  1.1507749e-001
  1.1944891e-001
  1.3971569e-001
  1.4487416e-001
  1.3903127e-001
  1.5713379e-001
  1.7309182e-001
  1.5206573e-001
  1.2622749e-001
  1.3346165e-001
  1.6453443e-001
  1.7742192e-001
  1.7127644e-001
  1.6218827e-001
  1.4420632e-001
  1.4927283e-001
  1.6624423e-001
  1.4921104e-001
  1.5322652e-001
  1.6019219e-001
  1.5116151e-001
  1.5913036e-001
  1.5009877e-001
  1.4213228e-001
  1.8501761e-001
  2.0962023e-001
  1.7027717e-001
  1.6411522e-001
  1.6795751e-001
  1.4885727e-001
  1.6177741e-001
  1.6462774e-001
  1.7541674e-001
  1.8710781e-001
  1.6682835e-001
  1.5368064e-001
  1.4362320e-001
  1.4260651e-001
  1.5553618e-001
  1.5839608e-001
  1.5525202e-001
  1.6308356e-001
  1.7682117e-001
  1.7151848e-001
  1.5629447e-001
  1.5114883e-001
  1.5201569e-001
  1.5386635e-001
  1.5171316e-001
  1.4957255e-001
  1.4644855e-001
  1.4633292e-001
  1.4322563e-001
  1.5607340e-001
  1.7080269e-001
  1.4357786e-001
  1.1955846e-001
  1.1166585e-001
  1.1379300e-001
  1.1988250e-001
  1.3189353e-001
  1.4081414e-001
  1.2973893e-001
  1.2771294e-001
  1.1474417e-001
  1.1582011e-001
  1.2385455e-001
  1.2086406e-001
  1.1590200e-001
  1.0798874e-001
  1.0212819e-001
  1.0029555e-001
  1.2436784e-001
  1.1836183e-001
  1.0244170e-001
  9.7603008e-002
  9.5788084e-002
  8.1037796e-002
  6.4413329e-002
  5.6885500e-002
  5.2404760e-002
  8.6798877e-002
  9.9994635e-002
  8.1209955e-002
  6.9547170e-002
  6.8932053e-002
  6.8319354e-002
  6.9700874e-002
  8.2023392e-002
  7.9303538e-002
  6.9631610e-002
  6.6011512e-002
  7.5365209e-002
  6.9701003e-002
  6.2088612e-002
  6.0511441e-002
  5.2969351e-002
  4.8474491e-002
  3.7043057e-002
  2.3711659e-002
  6.5044671e-003
  6.3677227e-003
  8.2233094e-003
  1.1058971e-002
  1.8850213e-002
  1.7613605e-002
  2.2361551e-002
  2.5077732e-002
  2.2790953e-002
  1.9525808e-002
  1.6286305e-002
  1.2076439e-002
  1.6863319e-002
  6.6715388e-003
  5.4607085e-004
  2.4374898e-003
 -8.6337911e-003
  1.2993060e-003
 -4.7837174e-003
 -1.5796773e-002
 -1.4768819e-002
 -1.4745085e-002
 -1.4721455e-002
 -5.7347968e-003
  3.1781764e-003
 -2.9207889e-003
 -5.9824873e-003
 -7.0275522e-003
 -1.8023281e-002
 -2.4945297e-002
  7.0299564e-003
  5.8783238e-003
 -2.2153897e-002
 -5.0952499e-002
 -3.9678196e-002
  1.7316434e-002
 -2.8404798e-003
 -1.3869768e-002
  3.0764847e-003
 -8.9975243e-003
 -1.4001593e-002
  4.9370076e-003
  2.2724299e-002
  2.3434636e-002
  2.2280904e-003
 -2.5776884e-002
 -2.7613485e-003
 -3.8359868e-003
 -2.5816096e-002
 -1.6743026e-002
 -1.0731690e-002
 -1.7818363e-003
  4.1067891e-003
 -1.5946770e-002
 -2.6873114e-002
 -2.0779266e-002
 -2.5689888e-002
 -1.7613154e-002
 -3.1512145e-002
 -4.1313229e-002
 -3.1115119e-002
 -2.3987448e-002
 -3.1856196e-002
 -3.8664030e-002
 -3.0476742e-002
 -2.7335274e-002
 -2.6210767e-002
 -3.4058091e-002
 -3.9848689e-002
 -3.1648336e-002
 -3.0485668e-002
 -3.2319570e-002
 -2.6170538e-002
 -3.0030310e-002
 -3.2861984e-002
 -3.2682062e-002
 -3.1506976e-002
 -2.8348997e-002
 -2.6212151e-002
 -4.1022621e-002
 -4.6747851e-002
 -3.6490600e-002
 -4.0258991e-002
 -3.4036534e-002
 -3.0851866e-002
 -3.0680258e-002
 -2.3538040e-002
 -2.0437382e-002
 -2.0349441e-002
 -1.9265971e-002
 -2.5162378e-002
 -3.3997780e-002
 -2.2842067e-002
 -2.4723875e-002
 -2.5593897e-002
 -2.2472662e-002
 -2.9335558e-002
 -3.3153976e-002
 -3.5944485e-002
 -3.8711296e-002
 -3.7470892e-002
 -3.7235595e-002
 -3.9988998e-002
 -3.7739342e-002
 -4.2478448e-002
 -4.1202269e-002
 -3.4955926e-002
 -3.2743395e-002
 -3.4531769e-002
 -3.8296468e-002
 -3.8045782e-002
 -4.7755198e-002
 -3.5474037e-002
 -2.9267802e-002
 -3.5062455e-002
 -8.9399173e-003
 -1.3903948e-002
 -5.3683837e-002
 -6.2263956e-002
 -5.1849939e-002
 -4.7495016e-002
 -4.4170274e-002
 -4.2863301e-002
 -3.4594509e-002
 -2.6392416e-002
 -2.2240365e-002
 -2.1109478e-002
 -2.8950513e-002
 -1.7804550e-002
 -2.4675631e-002
 -4.0453089e-002
 -4.5145499e-002
 -3.7847428e-002
 -4.3554741e-002
 -5.7181396e-002
 -6.6711341e-002
 -6.0226901e-002
 -3.2879699e-002
 -4.2603635e-002
 -1.6394323e-002
 -1.2308839e-002
 -4.3113188e-002
 -3.3828304e-002
 -3.8561056e-002
 -2.0348241e-002
 -2.3197830e-002
 -3.3990776e-002
 -6.8501993e-003
 -8.4546601e-004
 -9.8285531e-003
 -2.1725777e-002
 -1.4603031e-002
 -1.3513648e-002
 -2.6375568e-002
 -1.2242240e-002
 -3.6068588e-002
 -5.2727793e-002
 -3.7380296e-002
 -3.6099861e-002
 -3.2837058e-002
 -3.8563143e-002
 -3.2290452e-002
 -2.8059945e-002
 -3.6810005e-002
 -2.3577580e-002
 -1.0452718e-002
 -5.4022080e-003
 -2.2302858e-002
 -3.2093424e-002
  5.0044432e-003
  7.9379484e-003
 -1.7038265e-002
 -2.1891797e-002
 -2.5709172e-002
 -2.9494635e-002
 -1.4326148e-002
 -1.8203523e-002
 -4.6946336e-002
 -4.0596103e-002
 -2.0353925e-002
 -1.4219360e-002
 -2.6060888e-002
 -4.5772103e-002
 -2.3492816e-002
 -3.2268047e-002
 -3.3003359e-002
 -2.0784941e-002
 -3.3563449e-002
 -8.3921465e-003
  6.3905137e-004
 -3.3504888e-003
 -1.3282853e-002
 -1.6162371e-002
 -3.0834742e-003
 -8.0378008e-003
 -1.6935096e-002
 -1.4804268e-002
 -2.6633144e-002
 -2.6413697e-002
 -2.1215763e-002
 -1.9047447e-002
 -4.9454953e-003
 -1.5856385e-002
  1.2076468e-003
  1.4148393e-002
 -1.2853405e-002
 -1.3740634e-002
  1.3141922e-003
 -5.6641112e-003
 -7.6057716e-003
 -6.5437094e-003
 -2.5408303e-002
 -2.8183469e-002
 -2.3963789e-002
 -5.8352653e-003
 -1.0760658e-002
 -2.2616858e-002
 -1.3461498e-002
 -9.3601659e-003
 -4.2962561e-003
  1.7221921e-003
 -3.2636720e-003
 -2.4143231e-002
 -2.8916921e-002
 -3.5642525e-002
 -2.8369396e-002
 -1.2368054e-003
  1.7722082e-003
 -2.2148643e-003
  9.7650945e-003
  7.3270171e-004
 -6.2341623e-003
  7.9869358e-004
 -1.2144152e-002
 -2.5976776e-002
 -2.9736498e-002
 -3.4460484e-002
 -1.1259482e-002
 -9.1618588e-003
 -3.2974667e-002
 -2.6714660e-002
 -2.0505026e-002
 -2.3308692e-002
 -9.1583754e-003
  1.9815030e-002
  2.0665502e-002
  2.0512337e-002
  3.3306397e-002
  3.8027416e-002
  4.3704372e-002
  3.7382506e-002
  3.7086394e-002
  4.5754488e-002
  3.7419707e-002
  4.3094356e-002
  7.4614547e-002
  6.9025974e-002
  2.4640406e-002
  6.5102659e-003
  3.0355961e-002
  6.4960489e-002
  7.7369900e-002
  6.0793908e-002
  6.0285709e-002
  4.7828644e-002
  3.7463470e-002
  7.2993192e-002
  6.9389570e-002
  4.1911221e-002
  4.0549442e-002
  3.8201353e-002
  3.5870994e-002
  4.0529624e-002
  3.4193674e-002
  1.4961436e-002
 -8.0978762e-003
 -5.0750886e-003
  1.6845130e-002
  2.4642720e-002
  3.2375532e-002
  3.6060220e-002
  3.5729753e-002
  4.1376004e-002
  4.8966300e-002
  5.5496778e-002
  5.3008648e-002
  3.7592109e-002
  3.1263256e-002
  6.3825112e-002
  7.8192104e-002
  4.9614910e-002
  4.0191615e-002
  4.2794608e-002
  3.6411495e-002
  3.4062704e-002
  1.4801348e-002
 -1.3155797e-003
  1.6212108e-003
  1.5459604e-003
 -4.5044143e-003
 -2.5443993e-002
 -4.7207688e-002
 -4.4890438e-002
 -2.6656425e-002
 -2.7493022e-002
 -1.9358977e-002
 -1.3320002e-003
 -1.9305150e-002
 -2.7171921e-002
 -2.0035158e-002
 -3.4866202e-002
 -4.0611934e-002
 -3.4358727e-002
 -3.0147540e-002
 -4.5888085e-002
 -5.5523212e-002
 -5.3127089e-002
 -5.6724425e-002
 -6.2282477e-002
 -6.7793218e-002
 -7.9232266e-002
 -8.3604016e-002
 -6.3039827e-002
 -6.3555826e-002
 -3.9168073e-002
 -1.1990871e-002
 -2.0888183e-002
 -6.8064505e-003
 -2.7988410e-003
 -1.7746258e-002
 -2.6595635e-002
 -3.0392432e-002
 -1.7226985e-002
 -1.7115524e-002
 -3.3934941e-002
 -2.7710097e-002
 -2.4523101e-002
 -3.5304162e-002
 -2.3090278e-002
 -1.9938778e-002
 -2.5775674e-002
 -1.1646074e-002
 -2.3525263e-002
 -4.1282124e-002
 -3.4990894e-002
 -1.3811525e-002
 -2.0690310e-002
 -4.8426292e-002
 -1.3192102e-002
 -2.1473746e-003
 -3.6008689e-002
 -4.0710892e-002
 -3.9398005e-002
 -3.6102864e-002
 -3.3829493e-002
 -3.7549130e-002
 -4.1237230e-002
 -4.4893921e-002
 -4.0552106e-002
 -4.5207685e-002
 -4.5840187e-002
 -4.6466097e-002
 -4.1110020e-002
 -2.9821040e-002
 -4.2525151e-002
 -4.8152747e-002
 -4.6761490e-002
 -4.5380136e-002
 -4.7992260e-002
 -5.8548736e-002
 -6.9017025e-002
 -8.1389298e-002
 -1.1058812e-001
 -1.2858964e-001
 -1.2552575e-001
 -1.5335575e-001
 -1.9091215e-001
 -1.9429438e-001
 -1.8170799e-001
 -1.9212418e-001
 -1.9348560e-001
 -1.9881297e-001
 -2.0010645e-001
 -1.9441124e-001
 -2.0170273e-001
 -1.8502604e-001
 -1.5553261e-001
 -1.2328726e-001
 -1.1221523e-001
 -8.8283059e-002
 -5.5580290e-002
 -2.2146954e-002
  2.3960703e-002
  4.0809554e-002
  5.9511261e-002
  1.0594354e-001
  1.2709521e-001
  1.4209441e-001
  2.1174106e-001
  2.8180722e-001
  3.3336491e-001
  3.8050635e-001
  4.0135617e-001
  4.2102617e-001
  4.3554169e-001
  4.4295255e-001
  4.7817317e-001
  4.9117979e-001
  4.9609620e-001
  5.2684906e-001
  5.0355377e-001
  4.7545224e-001
  4.8839623e-001
  4.6835282e-001
  4.1260463e-001
  3.4833481e-001
  2.9951684e-001
  2.4212432e-001
  2.2702034e-001
  2.4987603e-001
  2.6058507e-001
  2.8016036e-001
  2.7168031e-001
  2.6823937e-001
  2.4888245e-001
  2.2170753e-001
  2.2064017e-001
  2.2056932e-001
  2.2547044e-001
  2.0841330e-001
  1.7754521e-001
  1.3795961e-001
  9.0725012e-002
  6.0803105e-002
  5.8012384e-002
  4.6278583e-002
  1.8703881e-002
 -6.7959770e-004
 -2.2893116e-002
 -4.2933272e-002
 -3.9903182e-002
 -4.5860481e-002
 -9.4592216e-002
 -1.5586992e-001
 -1.9772003e-001
 -2.1731227e-001
 -2.2976648e-001
 -2.2617745e-001
 -2.3157405e-001
 -2.7177612e-001
 -3.0666157e-001
 -3.2830544e-001
 -3.4976200e-001
 -3.6206889e-001
 -3.6729229e-001
 -3.8540799e-001
 -3.9539595e-001
 -4.0927311e-001
 -4.3198670e-001
 -4.3159475e-001
 -4.4115097e-001
 -4.5858187e-001
 -4.5892484e-001
 -4.5626221e-001
 -4.4962269e-001
 -4.5198573e-001
 -4.7224074e-001
 -4.7936772e-001
 -4.8841228e-001
 -4.6948127e-001
 -4.4869752e-001
 -4.6690889e-001
 -4.7599254e-001
 -4.5809648e-001
 -4.1842137e-001
 -3.9997043e-001
 -3.6771409e-001
 -3.2873760e-001
 -3.2791285e-001
 -3.1612864e-001
 -2.8650361e-001
 -2.7105351e-001
 -2.4476536e-001
 -2.0673271e-001
 -1.9688901e-001
 -1.8014746e-001
 -1.6353633e-001
 -1.5103872e-001
 -1.2170741e-001
 -9.6595002e-002
 -8.8614568e-002
 -9.1650884e-002
 -8.3703887e-002
 -8.1793996e-002
 -7.4916971e-002
 -4.4191473e-002
 -4.2596405e-002
 -6.9893654e-002
 -5.4141012e-002
 -4.2498445e-002
 -5.0867194e-002
 -4.8210351e-002
 -3.1630432e-002
 -2.1159896e-002
 -2.2724565e-002
 -7.3447787e-003
  5.9182434e-003
  2.5048593e-002
  2.8087776e-002
  2.4130380e-002
  1.6221450e-002
  1.2360787e-002
  5.5440960e-003
  2.7671001e-003
  1.1964095e-002
  1.1679558e-003
 -4.5599022e-003
 -4.2648195e-003
  2.2917931e-002
  4.0915075e-002
  7.9731504e-003
 -3.5654124e-002
 -3.0123697e-002
 -2.9616455e-002
 -3.7079055e-002
  2.3286217e-003
  1.0541563e-002
  4.7448991e-003
  2.1901800e-002
  2.6967397e-002
  2.1036279e-002
  2.6108430e-002
  2.6159261e-002
 -1.6759641e-003
 -7.3731360e-003
 -1.9994266e-002
 -3.4502801e-002
 -1.0050768e-002
  4.2432000e-003
  2.4862513e-003
  1.7400377e-003
  6.9758395e-003
  9.1814404e-003
  2.0332385e-002
  2.8404319e-002
 -2.4303902e-003
 -1.5086105e-002
 -3.7356030e-003
  2.5432576e-003
  2.1717999e-002
  1.9821817e-002
  9.9737933e-003
  2.1983080e-003
 -5.5131300e-003
  7.7531934e-003
  1.4935924e-002
  2.7039498e-002
  1.8129781e-002
 -6.6416101e-003
 -1.2287533e-002
 -1.1910911e-002
  1.4103325e-003
  6.6559409e-003
  1.0863089e-002
 -6.8738521e-003
 -7.5346318e-003
  3.1646948e-002
  4.0630569e-002
  3.6593184e-002
  3.1592225e-002
  1.4680797e-002
  9.8585313e-003
  1.5034945e-002
  1.9173175e-002
  3.1244703e-002
  2.4294863e-002
  5.4507249e-003
  7.6749896e-003
  1.0877257e-002
  1.4053521e-002
  2.0191596e-002
  2.8271159e-002
  3.2300641e-002
  3.9284343e-002
  5.3181491e-002
  1.9160387e-002
  6.3312977e-003
  2.2488620e-002
  2.8554581e-002
  3.9550036e-002
  3.0536717e-002
  3.1555625e-002
  4.1528797e-002
  3.3493289e-002
  3.3490099e-002
  4.6433074e-002
  4.8314242e-002
  3.8228072e-002
  3.2207201e-002
  3.7189918e-002
  2.7192595e-002
  2.0264304e-002
  3.5302356e-002
  5.6192194e-002
  5.5995869e-002
  5.2812048e-002
  5.3636583e-002
  4.1506309e-002
  5.5367791e-002
  7.4094079e-002
  7.7726692e-002
  7.7343846e-002
  7.3974281e-002
  6.7642523e-002
  6.2356612e-002
  9.6948417e-002
  1.0336928e-001
  7.8861601e-002
  1.0932677e-001
  1.0468297e-001
  9.5094518e-002
  7.8610338e-002
  5.8275069e-002
  9.6862807e-002
  1.0525508e-001
  9.5649311e-002
  9.4086464e-002
  1.0846805e-001
  1.1575745e-001
  9.6094303e-002
  1.0447433e-001
  1.3270074e-001
  1.4177007e-001
  1.2685911e-001
  1.2302104e-001
  1.2717773e-001
  1.1735379e-001
  1.0959831e-001
  1.2082498e-001
  1.2598064e-001
  1.2511474e-001
  1.2823556e-001
  1.3331858e-001
  1.4333530e-001
  1.4330648e-001
  1.3729784e-001
  1.4029703e-001
  1.5422210e-001
  1.5607745e-001
  1.5094120e-001
  1.4484611e-001
  1.4875514e-001
  1.5362322e-001
  1.4749150e-001
  1.4837637e-001
  1.5622041e-001
  1.5304019e-001
  1.4689317e-001
  1.5075055e-001
  1.4660412e-001
  1.5842113e-001
  1.6316488e-001
  1.6985616e-001
  1.8345832e-001
  1.8897584e-001
  1.8149510e-001
  1.6211851e-001
  1.7775143e-001
  1.7233649e-001
  1.6994764e-001
  2.0641272e-001
  1.9875283e-001
  1.7222656e-001
  1.7280060e-001
  1.6738853e-001
  1.6101897e-001
  1.7262214e-001
  1.8014079e-001
  1.6169818e-001
  1.5335970e-001
  1.7396517e-001
  1.6352303e-001
  1.5116866e-001
  1.5185666e-001
  1.5850902e-001
  1.7605627e-001
  1.6058897e-001
  1.4823007e-001
  1.5887265e-001
  1.6942248e-001
  1.7987995e-001
  1.9721679e-001
  1.7954820e-001
  1.3911179e-001
  1.4879602e-001
  1.5739970e-001
  1.4102966e-001
  1.3873087e-001
  1.4839653e-001
  1.3507188e-001
  1.3479783e-001
  1.4149226e-001
  1.2721266e-001
  1.2200810e-001
  1.2879224e-001
  1.3551599e-001
  1.2226153e-001
  1.1508612e-001
  1.2091163e-001
  1.3066843e-001
  1.3237318e-001
  1.2907936e-001
  1.2680336e-001
  1.0063933e-001
  1.0456225e-001
  9.1518505e-002
  7.9573518e-002
  1.0158352e-001
  9.4528216e-002
  8.0555353e-002
  7.0676887e-002
  7.3822800e-002
  8.9886497e-002
  9.9839648e-002
  8.6801503e-002
  8.7808903e-002
  8.1832994e-002
  5.8972025e-002
  6.2188666e-002
  6.5376100e-002
  5.5587706e-002
  5.5835678e-002
  5.5083008e-002
  4.8358377e-002
  5.1645291e-002
  3.6976477e-002
  3.3380434e-002
  3.5787232e-002
 -1.6638647e-003
 -1.3911989e-002
  3.1702039e-002
  4.6068186e-002
  2.6453731e-002
  1.4965102e-002
 -4.1459636e-004
 -1.7267716e-003
  7.9258956e-003
  1.3514878e-002
  1.6069114e-002
  2.3580557e-002
  4.6963363e-002
  4.0275413e-002
 -8.1880679e-003
 -2.1399320e-002
 -8.6092486e-003
 -2.8956862e-003
  9.7416828e-003
  3.6461744e-004
 -2.9612797e-003
 -3.2730823e-003
 -1.3542171e-002
 -4.8055866e-003
 -3.1125041e-003
 -3.4258768e-003
 -4.7333871e-003
  3.9280771e-003
  1.6501298e-002
 -5.8863764e-003
 -2.6099925e-002
 -2.1250659e-002
 -1.1461722e-002
  5.2179783e-003
 -7.1209894e-003
 -1.4380235e-002
 -2.2576469e-002
 -3.5685370e-002
 -5.8629525e-003
 -1.5125319e-002
 -3.8255018e-002
 -3.2314036e-002
 -2.7417356e-002
 -2.9532028e-002
 -3.3621135e-002
 -2.9709361e-002
 -2.0849959e-002
 -1.4055002e-002
 -3.1217722e-002
 -3.2305520e-002
 -1.5457976e-002
 -1.5678919e-002
 -1.0918913e-002
 -3.2106473e-003
 -1.8471982e-002
  1.2478043e-003
  8.8545775e-003
 -1.9454575e-002
 -2.6618552e-002
 -3.2728065e-002
 -3.6795623e-002
 -3.6845977e-002
 -5.0838233e-002
 -7.4674318e-002
 -5.2502340e-002
 -1.4576301e-002
 -1.2813267e-002
 -1.9032333e-002
 -7.2745335e-003
 -4.5766378e-003
 -2.3811414e-002
 -2.4962750e-002
 -1.0170261e-002
 -1.4746779e-003
 -1.1773194e-002
 -2.3979809e-002
 -3.3098995e-002
 -3.6167974e-002
 -2.6264783e-002
 -3.2377015e-002
 -3.4455453e-002
 -3.0541197e-002
 -3.5621927e-002
 -4.1656700e-002
 -2.6727629e-002
 -3.3830470e-002
 -6.0793047e-002
 -1.9812557e-002
  1.9105177e-003
 -1.3393376e-002
 -4.8490638e-002
 -5.7406690e-002
 -2.0437208e-002
 -1.1655455e-002
 -2.1868136e-002
 -3.9964672e-002
 -3.3015175e-002
 -2.8114047e-002
 -4.3170971e-002
 -4.9141061e-002
 -5.5061537e-002
 -5.1969469e-002
 -4.4918163e-002
 -5.9833717e-002
 -4.7736749e-002
 -3.6733815e-002
 -4.1754892e-002
 -3.6775304e-002
 -2.4864690e-002
 -1.1059633e-002
 -2.3261390e-002
 -3.6359330e-002
 -3.5407131e-002
 -2.4503307e-002
 -3.3606697e-002
 -4.2635345e-002
 -3.4659194e-002
 -3.8698743e-002
 -3.9717063e-002
 -3.7738818e-002
 -3.1792667e-002
 -3.1870285e-002
 -4.4893746e-002
 -4.2871464e-002
 -3.5885551e-002
 -3.3935858e-002
 -2.9014044e-002
 -2.8115898e-002
 -3.8179879e-002
 -4.3181562e-002
 -4.9137588e-002
 -5.1060434e-002
 -4.5995294e-002
 -4.4954409e-002
 -1.3048279e-002
 -4.3091220e-003
 -2.1535534e-002
 -2.1690787e-002
 -2.3836618e-002
 -1.3018121e-002
 -9.2597278e-003
 -3.3417820e-002
 -3.9451776e-002
 -4.3444030e-002
 -2.3501255e-002
 -9.6969190e-003
 -3.7833831e-002
 -3.0883556e-002
 -3.8928378e-002
 -2.9976509e-002
  7.7836370e-003
 -1.9499687e-002
 -3.9588718e-002
 -3.5611235e-002
 -3.8637146e-002
 -4.1637765e-002
 -3.6645964e-002
 -3.4682195e-002
 -4.4684897e-002
 -5.4605053e-002
 -4.4524928e-002
 -4.7473195e-002
 -5.1392393e-002
 -3.9344084e-002
 -4.5319944e-002
 -3.5311680e-002
 -2.4388865e-002
 -2.2518378e-002
 -2.0663137e-002
 -1.9818983e-002
 -1.0018638e-002
 -2.1212768e-002
 -3.3311274e-002
 -3.2363705e-002
 -2.2460365e-002
 -1.1642036e-002
 -1.1867406e-002
 -1.7070754e-002
 -2.4223494e-002
 -2.1358603e-002
 -2.4492538e-002
 -2.7600725e-002
 -1.0765194e-002
 -1.8965231e-002
 -3.5065514e-002
 -4.3066449e-002
 -4.5025792e-002
 -3.1033832e-002
 -2.5123138e-002
 -2.8223742e-002
 -3.5282344e-002
 -4.0290924e-002
 -3.3307034e-002
 -2.1400281e-002
 -2.6521192e-002
 -2.7616401e-002
 -1.0776132e-002
 -1.8971446e-002
 -4.2038343e-002
 -3.9022409e-002
 -3.3042775e-002
 -5.5992789e-002
 -5.4852259e-002
 -2.5834563e-002
 -4.1869561e-002
 -7.3707164e-002
 -5.8475167e-002
 -3.1415537e-002
 -1.3539857e-002
  3.1935905e-003
 -1.2079434e-002
 -1.6272880e-002
 -1.9436227e-002
 -2.0581887e-002
 -1.8000493e-003
 -1.3049452e-002
 -2.6198886e-002
 -3.5256951e-002
 -2.8305948e-002
 -2.0415549e-002
 -3.6491292e-002
 -3.8492352e-002
 -2.8525538e-002
 -3.0590719e-002
 -4.5585357e-002
 -4.0538413e-002
 -2.1589333e-002
 -1.7733620e-002
 -1.2913541e-002
 -1.6581683e-004
 -1.4412320e-002
 -6.5390910e-002
 -4.3250152e-002
  2.1534297e-002
 -6.8312884e-003
 -1.0870752e-004
  1.5787921e-003
 -9.6949109e-003
  1.9955331e-002
  1.5501157e-002
  3.0004442e-002
  2.3473557e-002
  4.2888163e-002
  4.4215717e-002
  3.2583566e-002
  3.8971067e-002
  1.3435491e-002
  2.2964239e-002
  2.8430064e-002
  2.3890577e-002
  4.1296647e-002
  5.0591153e-002
  2.7938408e-002
  1.5428319e-002
  1.2978379e-002
  1.0547382e-002
  1.6802309e-004
  2.3733590e-002
  4.3121423e-002
  1.0561645e-002
 -2.7708369e-002
 -4.4751251e-002
 -2.7793224e-002
 -2.6908026e-002
 -1.1091262e-002
 -5.3631315e-003
 -6.6536331e-003
  5.0127335e-003
  1.4591088e-002
  2.5085890e-002
  2.3542544e-002
  2.8981692e-002
  1.2464852e-002
  3.0532930e-003
  9.6523706e-003
 -4.7174743e-003
 -2.1958056e-002
 -1.8143636e-002
 -2.4319497e-002
 -3.1440619e-002
 -4.3482648e-002
 -5.3433619e-002
 -6.1310290e-002
 -8.5055621e-002
 -5.9805326e-002
 -5.7665895e-002
 -7.9444349e-002
 -8.1124640e-002
 -5.7891507e-002
 -2.9867485e-002
 -5.8838711e-002
 -8.0600391e-002
 -8.4255792e-002
 -6.7961012e-002
 -6.2752714e-002
 -6.3560910e-002
