  1.3602672e-001
  1.3602672e-001
  1.6167816e-001
  1.5723679e-001
  1.3788734e-001
  1.5255163e-001
  1.5255163e-001
  1.3721321e-001
  1.1502366e-001
  1.2587590e-001
  1.2966324e-001
  1.2966324e-001
  1.1449246e-001
  1.1338390e-001
  1.1825537e-001
  1.2009467e-001
  1.2009467e-001
  1.1394700e-001
  1.2079185e-001
  1.2757599e-001
  1.1537751e-001
  1.1537751e-001
  1.1223731e-001
  1.1907734e-001
  1.2585672e-001
  1.1664125e-001
  1.1664125e-001
  1.0251694e-001
  1.0344245e-001
  1.0734387e-001
  1.0324178e-001
  1.0324178e-001
  8.8214027e-002
  7.9280802e-002
  8.2367990e-002
  8.1442743e-002
  8.1442743e-002
  7.3550180e-002
  7.3686076e-002
  7.2821648e-002
  7.8932326e-002
  7.8932326e-002
  9.2956773e-002
  8.3956796e-002
  6.4071775e-002
  7.2231609e-002
  7.2231609e-002
  9.3268174e-002
  9.1222944e-002
  7.4251920e-002
  6.1399866e-002
  6.1399866e-002
  5.6617144e-002
  6.8801071e-002
  6.8931307e-002
  3.8184219e-002
  3.8184219e-002
  3.1587984e-002
  4.4961752e-002
  4.7268785e-002
  3.1628154e-002
  3.1628154e-002
  1.5117478e-002
  2.5629726e-002
  4.5017342e-002
  5.1297226e-002
  5.1297226e-002
  4.5572232e-002
  4.0887445e-002
  3.9226320e-002
  3.0605150e-002
  3.0605150e-002
  4.3962333e-002
  4.7248807e-002
  3.0587755e-002
  3.5970774e-002
  3.5970774e-002
  3.3340342e-002
  1.6786636e-002
  1.3313442e-002
  1.2854895e-002
  1.2854895e-002
  1.3394552e-002
  1.4924232e-002
  1.0464461e-002
  6.4355873e-005
  6.4355873e-005
 -1.6227171e-002
 -8.4842932e-003
 -3.3670284e-002
 -3.8732181e-002
 -3.8732181e-002
  1.4009998e-002
  3.1462845e-002
  2.3873324e-002
  8.3767924e-003
  8.3767924e-003
  7.9441980e-003
  1.2493357e-002
 -9.2240027e-004
  1.7049780e-003
  1.7049780e-003
  3.3138741e-003
  2.9166557e-003
  3.0406848e-002
 -9.0553292e-003
 -9.0553292e-003
 -2.9273446e-002
 -9.4901802e-003
 -1.5762884e-002
 -2.0667474e-003
 -2.0667474e-003
 -4.3441105e-004
 -1.2759107e-002
 -2.3987758e-002
 -1.3214968e-002
 -1.3214968e-002
 -5.3905275e-004
 -1.2865398e-002
 -3.3058815e-002
 -3.1177195e-002
 -3.1177195e-002
 -2.2339634e-002
 -2.0545952e-002
  1.5487764e-004
 -3.2162803e-003
 -3.2162803e-003
 -1.0544432e-002
 -1.1837945e-002
 -1.7105150e-002
 -3.0296997e-002
 -3.0296997e-002
 -2.3462948e-002
 -1.1705516e-002
 -3.9881015e-002
 -4.5915984e-002
 -4.5915984e-002
 -3.1983042e-002
 -2.7127117e-002
 -4.0237291e-002
 -4.3280933e-002
 -4.3280933e-002
 -2.2397587e-002
 -4.2517316e-002
 -6.0480353e-002
 -4.2442997e-002
 -4.2442997e-002
 -2.1565004e-002
 -2.0776084e-002
 -3.3936596e-002
 -1.8192448e-004
 -1.8192448e-004
 -9.5281037e-003
 -5.1663401e-002
 -5.0629642e-002
 -4.8607754e-002
 -4.8607754e-002
 -4.6601786e-002
 -4.5607576e-002
 -4.4620979e-002
 -4.8621481e-002
 -4.8621481e-002
 -4.3625521e-002
 -4.6637180e-002
 -4.2652330e-002
 -4.2683245e-002
 -4.2683245e-002
 -5.7652030e-002
 -4.1624481e-002
 -3.9670219e-002
 -3.5739788e-002
 -3.5739788e-002
 -2.1882245e-002
 -3.2039941e-002
 -3.5143178e-002
 -4.0212657e-002
 -4.0212657e-002
 -4.4244420e-002
 -2.7328739e-002
 -2.4494072e-002
 -5.7535272e-002
 -5.7535272e-002
 -6.7399595e-002
 -4.7304869e-002
 -6.1234541e-002
 -7.0069720e-002
 -7.0069720e-002
 -5.6921393e-002
 -5.3838649e-002
 -5.1776160e-002
 -3.0807576e-002
 -3.0807576e-002
 -3.0924319e-002
 -3.8011344e-002
 -3.4085156e-002
 -3.3178579e-002
 -3.3178579e-002
 -2.3316109e-002
 -1.4530334e-002
 -2.0755399e-002
 -2.9917523e-002
 -2.9917523e-002
 -3.1037445e-002
 -4.2107143e-002
 -4.2130920e-002
 -3.9166311e-002
 -3.9166311e-002
 -4.6184593e-002
 -4.6173548e-002
 -4.6161969e-002
 -5.0133474e-002
 -5.0133474e-002
 -5.3075843e-002
 -4.1054735e-002
 -3.4110964e-002
 -3.5190961e-002
 -3.5190961e-002
 -3.6261857e-002
 -3.0352363e-002
 -2.0507457e-002
 -2.7673621e-002
 -2.7673621e-002
 -2.0838520e-002
 -1.4059505e-002
 -2.0283094e-002
 -3.1435540e-002
 -3.1435540e-002
 -3.4529423e-002
 -1.7679678e-002
 -4.1800051e-002
 -5.1780063e-002
 -5.1780063e-002
 -4.7734985e-002
 -3.6750942e-002
 -3.4819490e-002
 -4.6846201e-002
 -4.6846201e-002
 -3.9991909e-003
  1.7582784e-002
 -1.7779677e-002
 -3.9906563e-002
 -3.9906563e-002
 -3.9942208e-002
 -5.8899274e-002
 -6.4753505e-002
 -3.6697848e-002
 -3.6697848e-002
 -1.6838438e-002
 -3.5981944e-002
 -3.5050524e-002
 -6.2411056e-003
 -6.2411056e-003
 -1.1528610e-002
 -2.6732402e-002
 -1.7910170e-002
 -2.3102983e-002
 -2.3102983e-002
 -3.8212467e-002
 -5.0210288e-002
 -5.5137866e-002
 -4.8073319e-002
 -4.8073319e-002
 -4.9032999e-002
 -4.8988134e-002
 -4.2967417e-002
 -3.2015807e-002
 -3.2015807e-002
 -3.4100251e-002
 -4.2142771e-002
 -3.3188598e-002
 -2.3311450e-002
 -2.3311450e-002
 -1.4511011e-002
 -9.7664838e-003
 -2.5975231e-002
 -3.2092382e-002
 -3.2092382e-002
 -2.4216623e-002
 -3.4331539e-002
 -3.7392107e-002
 -3.8435417e-002
 -3.8435417e-002
 -4.8432865e-002
 -5.3368253e-002
 -6.0254124e-002
 -6.8078394e-002
 -6.8078394e-002
 -5.5919145e-002
 -4.4854140e-002
 -4.2842031e-002
 -4.3833445e-002
 -4.3833445e-002
 -5.2783309e-002
 -5.2695889e-002
 -4.6632784e-002
 -3.8626663e-002
 -3.8626663e-002
 -3.4669102e-002
 -1.9788574e-002
 -1.4988860e-002
 -3.2138546e-002
 -3.2138546e-002
 -4.2176394e-002
 -5.2131536e-002
 -5.1049370e-002
 -4.8979205e-002
 -4.8979205e-002
 -6.7839065e-002
 -6.1645625e-002
 -6.0481029e-002
 -6.5300101e-002
 -6.5300101e-002
 -4.3188931e-002
 -6.6073501e-002
 -8.6777688e-002
 -5.9507049e-002
 -5.9507049e-002
 -4.0425333e-002
 -3.5441648e-002
 -2.3526919e-002
 -1.4697248e-002
 -1.4697248e-002
 -1.5899033e-002
 -1.9082989e-002
 -2.4232802e-002
 -3.7307649e-002
 -3.7307649e-002
 -4.0316028e-002
 -4.2303272e-002
 -3.0330909e-002
 -4.5134720e-003
 -4.5134720e-003
 -5.7970718e-003
 -2.7984672e-002
 -4.8994738e-002
 -3.8959078e-002
 -3.8959078e-002
 -4.6931132e-002
 -2.5955928e-002
 -8.1397512e-003
 -2.0346773e-002
 -2.0346773e-002
 -2.4486779e-002
 -4.1539560e-002
 -3.5546438e-002
 -4.4540369e-002
 -4.4540369e-002
 -4.4496829e-002
 -2.8518380e-002
 -3.4580176e-002
 -3.2624704e-002
 -3.2624704e-002
 -3.3672517e-002
 -2.6744082e-002
 -1.9872071e-002
 -2.0027579e-002
 -2.0027579e-002
 -2.5161336e-002
 -3.5232467e-002
 -3.6257615e-002
 -4.0261544e-002
 -4.0261544e-002
 -9.3754235e-003
 -2.6438601e-003
 -1.8873694e-002
 -1.1069179e-002
 -1.1069179e-002
 -1.4283705e-002
 -5.4177066e-004
  2.1322264e-003
 -4.1795077e-003
 -4.1795077e-003
 -1.5419681e-002
  3.2129567e-004
  3.3859170e-002
  3.4256221e-002
  3.4256221e-002
  3.8631821e-002
  3.1018833e-002
  2.1474562e-002
  3.8896324e-002
  3.8896324e-002
  2.4304743e-002
 -1.1239821e-003
  7.5152695e-003
  9.1116227e-003
  9.1116227e-003
  2.4636582e-002
  9.1600795e-003
 -2.0133543e-002
 -1.0347439e-002
 -1.0347439e-002
 -1.4584341e-002
 -1.6794999e-002
 -9.0286726e-003
 -9.2934597e-003
 -9.2934597e-003
  1.1357518e-002
  1.0924607e-002
 -1.0419802e-002
 -3.7047437e-003
 -3.7047437e-003
 -7.0041920e-003
 -1.7248449e-002
 -2.3425451e-002
  6.3006773e-003
  6.3006773e-003
  2.8811542e-002
  1.2296457e-002
 -8.0683279e-003
 -3.0258848e-002
 -3.0258848e-002
 -1.8406898e-002
 -1.0635538e-002
 -2.3842030e-002
 -2.5985501e-002
 -2.5985501e-002
 -3.3090786e-002
 -4.0137558e-002
 -4.9117866e-002
 -5.8023788e-002
 -5.8023788e-002
 -5.7892498e-002
 -4.1826555e-002
 -5.0788826e-002
 -6.5652211e-002
 -6.5652211e-002
 -5.9478561e-002
 -6.7296702e-002
 -6.7082093e-002
 -7.2843060e-002
 -7.2843060e-002
 -7.6563322e-002
 -7.8259432e-002
 -8.0935587e-002
 -8.1595968e-002
 -8.1595968e-002
 -6.9302087e-002
 -7.4037373e-002
 -9.5662435e-002
 -9.8185921e-002
 -9.8185921e-002
 -9.4710656e-002
 -7.9310372e-002
 -7.6980668e-002
 -8.1639334e-002
 -8.1639334e-002
 -8.8249551e-002
 -5.7954892e-002
 -6.3759064e-002
 -8.4452756e-002
 -8.4452756e-002
 -7.0118347e-002
 -1.0868222e-001
 -1.0310793e-001
 -9.7576289e-002
 -9.7576289e-002
 -1.1798061e-001
 -1.0634575e-001
 -1.0874560e-001
 -1.1311449e-001
 -1.1311449e-001
 -9.7526274e-002
 -9.8993074e-002
 -1.0144093e-001
 -7.9964154e-002
 -7.9964154e-002
 -7.4595195e-002
 -7.4247598e-002
 -6.8921278e-002
 -9.4509648e-002
 -9.4509648e-002
 -1.0494752e-001
 -7.6456711e-002
 -7.7077898e-002
 -9.1634485e-002
 -9.1634485e-002
 -1.2698337e-001
 -1.2120733e-001
 -5.8708327e-002
 -5.9460644e-002
 -5.9460644e-002
 -8.8090496e-002
 -7.8639349e-002
 -7.6234523e-002
 -1.0969969e-001
 -1.0969969e-001
 -8.9109123e-002
 -8.7606422e-002
 -9.9060150e-002
 -4.2695785e-002
 -4.2695785e-002
 -4.3557645e-002
 -7.0304812e-002
 -7.9900891e-002
 -8.1448913e-002
 -8.1448913e-002
 -6.4059676e-002
 -5.1790274e-002
 -6.6509138e-002
 -7.7122104e-002
 -7.7122104e-002
 -6.0756594e-002
 -5.3486254e-002
 -5.3245157e-002
 -5.6988125e-002
 -5.6988125e-002
 -6.9661976e-002
 -8.0238319e-002
 -9.3713463e-002
 -1.0707554e-001
 -1.0707554e-001
 -1.1434958e-001
 -1.2753597e-001
 -1.4260230e-001
 -1.3563098e-001
 -1.3563098e-001
 -1.3269592e-001
 -1.4272734e-001
 -1.6462296e-001
 -1.6940385e-001
 -1.6940385e-001
 -1.7015650e-001
 -1.8484007e-001
 -1.8645075e-001
 -1.9899706e-001
 -1.9899706e-001
 -2.1740962e-001
 -2.2769719e-001
 -2.3390944e-001
 -2.3807129e-001
 -2.3807129e-001
 -2.3422390e-001
 -1.9853118e-001
 -1.7208673e-001
 -1.5780351e-001
 -1.5780351e-001
 -1.3666040e-001
 -1.0373465e-001
 -6.4103215e-002
 -2.1805855e-002
 -2.1805855e-002
  1.6162894e-002
  3.1910879e-002
  8.2385756e-002
  1.3543299e-001
  1.3543299e-001
  1.6513626e-001
  2.0753795e-001
  2.4460653e-001
  3.1323279e-001
  3.1323279e-001
  3.6734481e-001
  3.9610448e-001
  4.1067303e-001
  4.0519052e-001
  4.0519052e-001
  4.2065310e-001
  4.2103643e-001
  3.8754159e-001
  3.7422545e-001
  3.7422545e-001
  4.2374730e-001
  4.4596037e-001
  4.4208306e-001
  4.2925912e-001
  4.2925912e-001
  3.9063174e-001
  3.4433941e-001
  3.0438897e-001
  2.9363567e-001
  2.9363567e-001
  2.7798042e-001
  2.4850065e-001
  2.4813423e-001
  2.6668408e-001
  2.6668408e-001
  2.5320381e-001
  2.3185741e-001
  2.2461979e-001
  2.0847001e-001
  2.0847001e-001
  1.8049377e-001
  1.6469036e-001
  1.5498535e-001
  1.4037426e-001
  1.4037426e-001
  1.2189357e-001
  8.4636987e-002
  6.3615880e-002
  7.1644959e-002
  7.1644959e-002
  4.1760894e-002
  2.4069836e-002
  3.9386667e-002
  1.5735937e-002
  1.5735937e-002
 -2.9632611e-002
 -5.4711936e-002
 -7.2613824e-002
 -9.9330810e-002
 -9.9330810e-002
 -1.3080631e-001
 -1.6301673e-001
 -1.9595497e-001
 -2.0670819e-001
 -2.0670819e-001
 -2.1437954e-001
 -2.4687927e-001
 -2.7014254e-001
 -3.0914167e-001
 -3.0914167e-001
 -3.4283268e-001
 -3.6528239e-001
 -3.6562700e-001
 -3.5201442e-001
 -3.5201442e-001
 -3.7933388e-001
 -3.9446690e-001
 -3.9850848e-001
 -4.1744262e-001
 -4.1744262e-001
 -4.2724521e-001
 -4.2998235e-001
 -4.4662566e-001
 -4.5216326e-001
 -4.5216326e-001
 -4.6959151e-001
 -4.7789859e-001
 -4.8413008e-001
 -4.9826175e-001
 -4.9826175e-001
 -5.0628584e-001
 -5.2418643e-001
 -5.1105008e-001
 -5.2190564e-001
 -5.2190564e-001
 -5.3663848e-001
 -5.1338840e-001
 -4.8931513e-001
 -4.8135652e-001
 -4.8135652e-001
 -4.7842611e-001
 -4.6156067e-001
 -4.3685009e-001
 -4.1332243e-001
 -4.1332243e-001
 -3.8399745e-001
 -3.5290712e-001
 -3.4396856e-001
 -3.2612793e-001
 -3.2612793e-001
 -3.1937665e-001
 -3.0569799e-001
 -2.7319818e-001
 -2.5489698e-001
 -2.5489698e-001
 -2.5466252e-001
 -2.4545767e-001
 -2.2138063e-001
 -1.9350873e-001
 -1.9350873e-001
 -1.8179198e-001
 -1.6916833e-001
 -1.2178485e-001
 -1.1362420e-001
 -1.1362420e-001
 -1.2245608e-001
 -9.8346074e-002
 -9.1359484e-002
 -7.8450757e-002
 -7.8450757e-002
 -5.8672831e-002
 -6.6939156e-002
 -6.9159437e-002
 -5.3432180e-002
 -5.3432180e-002
 -5.3765369e-002
 -5.4093219e-002
 -5.6407566e-002
 -4.7745336e-002
 -4.7745336e-002
 -3.5167884e-002
 -4.2609325e-002
 -3.3057299e-002
 -4.2503589e-002
 -4.2503589e-002
 -3.0956400e-002
 -1.1534502e-002
 -4.2065341e-002
 -3.9479477e-002
 -3.9479477e-002
 -5.0855223e-002
 -4.4209126e-002
 -2.7583821e-003
  3.4978040e-003
  3.4978040e-003
  5.7199823e-003
 -1.7968822e-002
 -1.7560782e-002
 -1.1179189e-002
 -1.1179189e-002
 -2.5762491e-002
 -1.5327221e-002
 -5.9717702e-003
 -1.8601599e-002
 -1.8601599e-002
 -3.3118461e-002
 -2.3612941e-002
 -1.3187540e-002
 -1.8780491e-002
 -1.8780491e-002
 -7.3958175e-003
 -2.1000661e-002
 -1.8558201e-002
 -2.6093213e-002
 -2.6093213e-002
 -3.5556637e-002
  1.6805453e-002
  1.9940517e-002
  1.3091163e-002
  1.3091163e-002
  9.2860002e-003
  1.0492076e-002
  1.4676571e-002
  2.5798611e-002
  2.5798611e-002
  3.3842064e-002
 -5.9838384e-003
  3.2855947e-004
  2.0532912e-002
  2.0532912e-002
  1.8662430e-002
  1.2823922e-002
  1.5996773e-002
  2.1135878e-002
  2.1135878e-002
 -1.6521255e-003
 -3.5207782e-002
 -2.0683608e-002
  7.6660944e-003
  7.6660944e-003
  3.9157707e-003
  1.6131369e-002
  2.3267967e-002
  2.9350466e-002
  2.9350466e-002
  2.9407760e-002
  2.1497299e-002
  2.2614854e-002
  3.5674286e-002
  3.5674286e-002
  3.1696315e-002
  2.3767115e-002
  2.9845522e-002
  2.3923312e-002
  2.3923312e-002
  2.5020967e-002
  2.4117924e-002
  2.0234666e-002
  2.0367015e-002
  2.0367015e-002
  2.2490327e-002
  2.7584156e-002
  5.3550312e-002
  5.9385222e-002
  5.9385222e-002
  2.8322910e-002
  2.4403920e-002
  4.0435138e-002
  4.7371709e-002
  4.7371709e-002
  5.4250885e-002
  5.3105674e-002
  3.5038583e-002
  5.9942788e-002
  5.9942788e-002
  6.9703712e-002
  4.5522660e-002
  3.6477225e-002
  1.2566851e-002
  1.2566851e-002
  1.7733636e-002
  3.5805219e-002
  1.0904877e-002
 -4.8282331e-003
 -4.8282331e-003
  6.4220152e-002
  6.5977193e-002
  4.1825040e-002
  8.2603564e-002
  8.2603564e-002
  5.0345823e-002
  3.4285454e-002
  5.8192257e-002
  3.9078654e-002
  3.9078654e-002
  3.9043042e-002
  7.4859805e-002
  7.4529548e-002
  7.3204439e-002
  7.3204439e-002
  8.8818917e-002
  8.4385521e-002
  6.5047819e-002
  7.4748074e-002
  7.4748074e-002
  7.9387821e-002
  6.5065620e-002
  6.2809993e-002
  4.6628859e-002
  4.6628859e-002
  5.2489144e-002
  6.4275985e-002
  6.9989681e-002
  6.5696076e-002
  6.5696076e-002
  5.6456645e-002
  6.7209723e-002
  8.1857031e-002
  1.0833346e-001
  1.0833346e-001
  1.1766021e-001
  1.0400173e-001
  1.0837846e-001
  1.2765507e-001
  1.2765507e-001
  1.1290981e-001
  9.2306630e-002
  9.8758924e-002
  1.0515587e-001
  1.0515587e-001
  1.0452637e-001
  1.1585007e-001
  1.1512714e-001
  1.0444791e-001
  1.0444791e-001
  1.0580402e-001
  1.1610929e-001
  1.2035166e-001
  1.0264607e-001
  1.0264607e-001
  1.0898413e-001
  1.2323459e-001
  1.1744696e-001
  1.3361321e-001
  1.3361321e-001
  1.6259017e-001
  1.5945645e-001
  1.4937226e-001
  1.7123500e-001
  1.7123500e-001
  1.5905308e-001
  1.2704791e-001
  1.4210816e-001
  1.4807790e-001
  1.4807790e-001
  1.4005174e-001
  1.3806244e-001
  1.3309755e-001
  1.3812832e-001
  1.3812832e-001
  1.4510560e-001
  1.4007060e-001
  1.4104794e-001
  1.4101710e-001
  1.4101710e-001
  1.4894944e-001
  1.6378369e-001
  1.6255711e-001
  1.5137647e-001
  1.5137647e-001
  1.4824977e-001
  1.5908669e-001
  1.5588739e-001
  1.5968069e-001
  1.5968069e-001
  1.7040928e-001
  1.7307754e-001
  1.8069801e-001
  1.6036510e-001
  1.6036510e-001
  1.2724659e-001
  1.3223920e-001
  1.4415814e-001
  1.6195048e-001
  1.6195048e-001
  1.5867818e-001
  1.2754223e-001
  1.4246835e-001
  1.5228835e-001
  1.5228835e-001
  1.2617061e-001
  1.4109442e-001
  1.5290393e-001
  1.4668566e-001
  1.4668566e-001
  1.6839877e-001
  1.9291655e-001
  1.4353065e-001
  8.4584784e-002
  8.4584784e-002
  1.4662246e-001
  1.8723412e-001
  1.5879019e-001
  1.7538921e-001
  1.7538921e-001
  1.8387946e-001
  1.5146212e-001
  1.3523921e-001
  1.4105429e-001
  1.4105429e-001
  1.2889083e-001
  1.1781839e-001
  1.2973829e-001
  1.3757273e-001
  1.3757273e-001
  1.3637534e-001
  1.4016262e-001
  1.4291827e-001
  1.2772026e-001
  1.2772026e-001
  1.1662575e-001
  1.2254830e-001
  1.3339773e-001
  1.3120711e-001
  1.3120711e-001
  1.1409133e-001
  1.1902140e-001
  1.1892750e-001
  1.0986709e-001
  1.0986709e-001
  1.0286872e-001
  1.0289527e-001
  1.0789748e-001
  8.7957391e-002
  8.7957391e-002
  8.1123930e-002
  8.3306543e-002
  8.9451921e-002
  7.8613471e-002
  7.8613471e-002
  5.3918119e-002
  8.0213720e-002
  8.6373331e-002
  7.5549078e-002
  7.5549078e-002
  1.0265488e-001
  9.5674635e-002
  7.9784852e-002
  7.9956490e-002
  7.9956490e-002
  7.7136049e-002
  6.1389045e-002
  5.3735661e-002
  7.1040342e-002
  7.1040342e-002
  6.8282782e-002
  5.0606612e-002
  3.7056560e-002
  3.6562478e-002
  3.6562478e-002
  4.3042214e-002
  3.4528647e-002
  1.6124162e-002
  1.4799639e-002
  1.4799639e-002
  4.0374517e-002
  5.4783670e-002
  3.8199824e-002
  3.8680303e-002
  3.8680303e-002
  4.6126535e-002
  4.2555049e-002
  3.1043751e-002
  2.9584204e-002
  2.9584204e-002
  4.4069697e-002
  3.7520939e-002
  4.5962652e-002
  4.8358011e-002
  4.8358011e-002
 -1.2010146e-002
 -1.2130497e-002
  1.3643663e-002
  2.3578267e-003
  2.3578267e-003
  8.0941670e-003
  1.4778862e-002
  1.6428509e-002
  2.5035062e-002
  2.5035062e-002
  2.6970105e-003
 -3.3401538e-002
 -3.7335298e-002
 -1.4346624e-002
 -1.4346624e-002
  5.4664891e-003
 -5.7559645e-003
 -1.5890950e-002
 -2.0412314e-003
 -2.0412314e-003
  1.6674462e-002
  1.5318125e-002
 -2.9583828e-003
 -1.0130809e-002
 -1.0130809e-002
 -1.0273313e-002
 -1.1410593e-002
 -1.6522190e-002
 -1.8604112e-002
 -1.8604112e-002
 -1.6685153e-002
 -9.8021853e-003
 -1.8910000e-002
 -2.7943095e-002
 -2.7943095e-002
 -1.8975510e-002
 -1.7052306e-002
 -1.4148723e-002
 -1.0272875e-002
 -1.0272875e-002
 -8.4205496e-003
 -1.9530207e-002
 -2.5569231e-002
 -1.3632126e-002
 -1.3632126e-002
 -1.2747469e-002
 -1.8841311e-002
 -2.4885066e-002
 -2.4903517e-002
 -2.4903517e-002
 -2.0937731e-002
 -3.5926199e-002
 -3.6848627e-002
 -1.6848657e-002
 -1.6848657e-002
 -1.5934164e-002
 -3.0961428e-002
 -3.3914302e-002
 -1.8915981e-002
 -1.8915981e-002
 -2.1966264e-002
 -3.5946162e-002
 -1.3958368e-002
 -4.1010635e-003
 -4.1010635e-003
 -2.8185283e-002
 -2.6178496e-002
 -8.2531193e-003
 -1.5371953e-002
 -1.5371953e-002
 -2.8407831e-002
 -1.9426634e-002
 -3.5472235e-003
 -1.9666776e-002
 -1.9666776e-002
 -4.1629636e-002
 -3.1542950e-002
 -3.7472463e-002
 -2.8414012e-002
 -2.8414012e-002
 -1.1461763e-002
 -3.6476008e-002
 -3.2403634e-002
 -4.9277765e-002
 -4.9277765e-002
 -4.1115008e-002
  1.8387083e-003
  2.6129137e-003
 -2.5950340e-003
 -2.5950340e-003
 -1.1744244e-002
 -4.8841116e-003
 -1.0679264e-003
  4.7085890e-003
  4.7085890e-003
 -5.4970540e-003
  3.3027836e-003
  2.4976999e-002
 -6.3100389e-003
 -6.3100389e-003
 -3.3357771e-002
 -3.9269584e-002
 -2.6209888e-002
 -1.1264587e-002
 -1.1264587e-002
 -9.3881551e-003
 -1.6490191e-002
 -5.6076489e-003
  1.2157127e-002
  1.2157127e-002
  2.8865468e-003
  1.2613526e-002
  1.8276633e-002
 -6.9805003e-003
 -6.9805003e-003
 -8.1295244e-003
  4.6734596e-003
  1.8367205e-002
  5.0586642e-003
  5.0586642e-003
 -1.9096493e-002
 -1.0189013e-002
 -1.6292885e-002
 -1.7367099e-002
 -1.7367099e-002
 -8.4732204e-003
 -2.3553771e-002
 -1.5604760e-002
 -2.7410023e-003
 -2.7410023e-003
 -1.5876128e-002
  1.9693780e-003
  7.7177662e-003
 -7.4953870e-003
 -7.4953870e-003
 -7.6456606e-003
 -1.9745600e-002
 -2.6766738e-002
 -1.5803612e-002
 -1.5803612e-002
  1.3992280e-002
  1.0678973e-002
 -6.5505607e-003
  3.2500864e-003
  3.2500864e-003
 -1.0931498e-002
 -4.0830958e-003
  8.6845698e-003
 -9.5257617e-003
 -9.5257617e-003
 -1.9619965e-002
 -3.2618998e-002
 -4.7502768e-002
 -3.9357772e-002
 -3.9357772e-002
 -2.4307017e-002
 -4.8219036e-002
 -3.0106273e-002
 -2.0108103e-002
 -2.0108103e-002
 -3.7080688e-002
 -1.4077399e-002
 -3.0102236e-002
 -9.1468905e-003
 -9.1468905e-003
  5.0477402e-002
  3.7907175e-002
 -1.2406178e-002
 -2.1475999e-002
 -2.1475999e-002
 -8.5613492e-003
 -1.1686744e-002
 -1.7774188e-002
 -6.8811861e-003
 -6.8811861e-003
 -6.0908964e-005
 -2.2598063e-003
  1.5344901e-003
 -8.6452208e-003
 -8.6452208e-003
 -1.0774467e-002
 -3.6787914e-002
 -3.0718808e-002
  1.1949287e-003
  1.1949287e-003
 -1.3960046e-002
 -1.0971614e-004
 -1.8241815e-002
 -3.1245815e-002
 -3.1245815e-002
 -9.2860913e-003
 -5.4321332e-003
  6.3574561e-003
  1.1078845e-002
  1.1078845e-002
  1.8183359e-003
 -2.3872774e-003
 -8.5505077e-003
 -2.6614180e-002
 -2.6614180e-002
 -1.2660628e-002
  4.1667074e-003
 -6.0333447e-003
 -2.6109109e-002
 -2.6109109e-002
 -1.8134828e-002
 -3.2540770e-003
 -9.4091242e-003
 -7.5465709e-003
 -7.5465709e-003
 -8.6869703e-003
 -9.8180210e-003
 -1.3927472e-002
 -1.0035893e-002
 -1.0035893e-002
  7.9526740e-004
 -6.3886830e-003
 -1.7497564e-002
 -1.8556260e-002
 -1.8556260e-002
 -2.0601843e-002
 -1.7650753e-002
 -1.4723458e-002
 -1.6799378e-002
 -1.6799378e-002
 -1.9853924e-002
 -1.5911759e-002
 -2.2956487e-002
 -2.3967679e-002
 -2.3967679e-002
 -7.0437837e-003
 -2.2091133e-003
 -9.3649910e-003
 -5.5073587e-003
 -5.5073587e-003
  2.3022847e-003
 -1.1862131e-002
 -4.9966141e-003
  6.7922089e-003
  6.7922089e-003
 -1.4339024e-003
  3.3537880e-003
 -7.8324865e-003
 -2.2910906e-002
 -2.2910906e-002
 -1.1972032e-002
 -3.1142438e-003
 -6.2798625e-003
 -1.8382769e-002
 -1.8382769e-002
 -1.7439606e-002
 -1.8495621e-002
 -4.2448411e-002
 -3.2343458e-002
 -3.2343458e-002
 -1.5348948e-002
 -2.7374311e-002
 -2.2370310e-002
 -2.1390317e-002
 -2.1390317e-002
 -2.7389177e-002
 -3.3338302e-002
 -3.0274763e-002
 -2.7235481e-002
 -2.7235481e-002
  9.6403716e-003
  3.4263345e-002
  1.7851579e-002
  1.7507627e-002
  1.7507627e-002
  4.2189224e-003
  9.9606637e-003
  1.7122459e-003
  3.4900147e-003
  3.4900147e-003
  1.1228323e-002
  1.5915046e-002
  3.9484855e-002
  2.4020157e-002
  2.4020157e-002
  4.2541578e-002
  4.0991830e-002
  3.4473613e-002
  2.7011380e-002
  2.7011380e-002
  4.1518882e-002
  7.1840587e-002
  5.7096052e-002
  5.1433020e-002
  5.1433020e-002
  3.9838872e-002
  4.7260077e-002
  4.5655613e-002
  4.9041974e-002
  4.9041974e-002
  5.3394624e-002
  4.2771053e-002
  3.4224418e-002
  2.9729829e-002
  2.9729829e-002
  2.1287077e-002
  1.5900048e-002
  3.5849012e-003
 -9.6258869e-003
 -9.6258869e-003
  1.1730431e-003
 -6.7503241e-005
  8.6608295e-003
  1.2337689e-002
  1.2337689e-002
  1.5983768e-002
  2.5574618e-002
  2.9110466e-002
  3.8591542e-002
  3.8591542e-002
  2.9071324e-002
  4.3529338e-002
  4.6912425e-002
  3.5327400e-002
  3.5327400e-002
  4.0765942e-002
  3.1219766e-002
  1.8762545e-002
  1.1385725e-002
  1.1385725e-002
 -9.1102194e-004
 -3.1485032e-003
 -3.3761161e-003
 -2.8499686e-002
 -2.8499686e-002
 -3.0511445e-002
 -1.7567512e-002
 -1.7675898e-002
 -2.5750366e-002
 -2.5750366e-002
 -2.4795152e-002
 -2.4843147e-002
 -3.3853377e-002
 -5.2748167e-002
 -5.2748167e-002
 -5.9536184e-002
 -6.1287504e-002
 -6.7006377e-002
 -6.7697034e-002
 -6.7697034e-002
 -6.7384170e-002
 -4.9145634e-002
 -5.0972930e-002
 -7.9673265e-002
 -7.9673265e-002
 -9.3198006e-002
 -4.0879676e-002
 -3.4799560e-002
 -8.6530670e-002
 -8.6530670e-002
 -7.6090168e-002
 -7.6687671e-002
 -9.3212426e-002
 -5.8808105e-002
 -5.8808105e-002
 -4.7589118e-002
 -5.4386759e-002
 -4.7184579e-002
 -4.6015347e-002
 -4.6015347e-002
 -2.2944472e-002
 -3.5914204e-002
 -7.0686793e-002
 -7.8283531e-002
 -7.8283531e-002
 -9.5774778e-002
 -9.0214222e-002
 -7.4737257e-002
 -7.5318967e-002
 -7.5318967e-002
 -7.0914057e-002
 -7.6501993e-002
 -8.0050038e-002
 -8.0578841e-002
 -8.0578841e-002
 -7.5125351e-002
 -7.4693596e-002
 -7.9242527e-002
 -6.8813191e-002
 -6.8813191e-002
 -6.6434176e-002
 -7.0047930e-002
 -5.5703644e-002
 -6.1392955e-002
 -6.1392955e-002
 -7.5996936e-002
 -7.5540518e-002
 -6.7118168e-002
 -6.1750229e-002
 -6.1750229e-002
 -7.2358654e-002
 -7.3914868e-002
 -6.8484631e-002
 -7.0067889e-002
 -7.0067889e-002
 -7.4623629e-002
 -8.2127389e-002
 -8.6579387e-002
 -7.7049476e-002
 -7.7049476e-002
 -7.9545778e-002
 -6.1105057e-002
 -5.0780311e-002
 -7.4399023e-002
 -7.4399023e-002
 -7.3920467e-002
 -6.3484317e-002
 -5.3131366e-002
 -5.4812122e-002
 -5.4812122e-002
 -6.4444525e-002
 -7.3996004e-002
 -8.6454607e-002
 -7.8890355e-002
 -7.8890355e-002
 -7.3377079e-002
 -9.0812169e-002
 -1.1806066e-001
 -1.5006189e-001
 -1.5006189e-001
 -1.5490698e-001
 -1.5771538e-001
 -1.6846267e-001
 -1.6816141e-001
 -1.6816141e-001
 -1.8578311e-001
 -2.0624210e-001
 -2.0063325e-001
 -2.4087494e-001
 -2.4087494e-001
 -2.6584081e-001
 -2.3083921e-001
 -2.2798474e-001
 -2.1020716e-001
 -2.1020716e-001
 -1.9655122e-001
 -1.8100826e-001
 -1.4865565e-001
 -1.3946804e-001
 -1.3946804e-001
 -1.4329729e-001
 -1.0327034e-001
 -4.5640576e-002
 -4.3094513e-004
 -4.3094513e-004
  3.1462674e-002
  5.1143983e-002
  9.4564699e-002
  1.3663168e-001
  1.3663168e-001
  1.8432589e-001
  2.3660381e-001
  2.9243030e-001
  3.3683589e-001
  3.3683589e-001
  3.6194520e-001
  3.8185779e-001
  4.0159496e-001
  4.1219432e-001
  4.1219432e-001
  4.3564007e-001
  4.6186732e-001
  4.5599579e-001
  4.3920204e-001
  4.3920204e-001
  4.3547759e-001
  4.3376075e-001
  4.1610884e-001
  4.1352573e-001
  4.1352573e-001
  3.6513814e-001
  3.0817059e-001
  2.8452307e-001
  2.5309188e-001
  2.5309188e-001
  2.3286386e-001
  2.0980541e-001
  2.0784214e-001
  2.0987125e-001
  2.0987125e-001
  2.0988459e-001
  2.1387406e-001
  2.2280289e-001
  1.8683520e-001
  1.8683520e-001
  1.4816719e-001
  1.5163791e-001
  1.3515666e-001
  1.5465773e-001
  1.5465773e-001
  1.4710433e-001
  8.1844870e-002
  3.8029724e-002
  1.0505512e-002
  1.0505512e-002
 -3.8477472e-003
 -8.1249654e-003
 -1.4359224e-002
 -4.4444194e-002
 -4.4444194e-002
 -5.5360007e-002
 -4.9254822e-002
 -8.1042705e-002
 -1.0659302e-001
 -1.0659302e-001
 -1.1599685e-001
 -1.5519746e-001
 -1.9706052e-001
 -2.0571029e-001
 -2.0571029e-001
 -2.2623370e-001
 -2.2865583e-001
 -2.2308363e-001
 -2.4842287e-001
 -2.4842287e-001
 -2.7354693e-001
 -3.1140347e-001
 -3.5192805e-001
 -3.9111385e-001
 -3.9111385e-001
 -4.1104422e-001
 -3.8100286e-001
 -3.5318630e-001
 -3.7936424e-001
 -3.7936424e-001
 -3.8938109e-001
 -4.1324569e-001
 -4.6578258e-001
 -4.8899310e-001
 -4.8899310e-001
 -4.9805476e-001
 -4.7615255e-001
 -4.5540921e-001
 -4.6170944e-001
 -4.6170944e-001
 -4.5698754e-001
 -4.4531736e-001
 -4.6161270e-001
 -4.7975083e-001
 -4.7975083e-001
 -4.7780615e-001
 -4.7884868e-001
 -4.7189898e-001
 -4.6598571e-001
 -4.6598571e-001
 -4.6209646e-001
 -4.4726804e-001
 -4.2557395e-001
 -3.7516113e-001
 -3.7516113e-001
 -3.4805304e-001
 -3.4306412e-001
 -3.0822666e-001
 -3.0553189e-001
 -3.0553189e-001
 -3.0483995e-001
 -2.6829013e-001
 -2.5692693e-001
 -2.3967177e-001
 -2.3967177e-001
 -2.2254880e-001
 -2.0256978e-001
 -1.5984065e-001
 -1.6525798e-001
 -1.6525798e-001
 -1.4473107e-001
 -1.0843174e-001
 -1.3018703e-001
 -1.3980830e-001
 -1.3980830e-001
 -1.2444766e-001
 -1.0024434e-001
 -8.4201776e-002
 -7.1274275e-002
 -7.1274275e-002
 -6.4424501e-002
 -6.5594795e-002
 -5.0817853e-002
 -3.8150810e-002
 -3.8150810e-002
 -3.8531780e-002
 -4.2890933e-002
 -3.5261134e-002
 -3.0679210e-002
 -3.0679210e-002
 -3.0116295e-002
 -1.6609182e-002
 -1.2174033e-002
 -1.8728631e-002
 -1.8728631e-002
 -2.2240251e-002
 -1.2774615e-002
 -1.5335728e-002
 -1.8870235e-002
 -1.8870235e-002
 -2.4365958e-002
 -1.3880410e-002
  1.0463595e-002
  1.7444627e-003
  1.7444627e-003
 -1.3873701e-002
 -2.1395408e-002
 -8.9357541e-003
 -3.5479182e-003
 -3.5479182e-003
 -1.0153780e-002
 -9.7328885e-003
  1.6409114e-003
  7.9432310e-003
  7.9432310e-003
  1.2203034e-002
 -7.4730037e-003
 -1.4040090e-002
  3.6205239e-004
  3.6205239e-004
  1.2655716e-002
  2.8833151e-002
  1.2013623e-002
  1.3077163e-003
  1.3077163e-003
 -2.3382878e-003
 -1.8900060e-002
 -2.0386143e-002
 -3.9320268e-003
 -3.9320268e-003
 -6.5333747e-003
 -3.3013823e-002
 -1.9439411e-002
  3.1870121e-002
  3.1870121e-002
  2.2010070e-002
  6.2555800e-003
  9.5529645e-003
 -4.1061844e-003
 -4.1061844e-003
  2.3179642e-002
  1.4390184e-002
  1.6895996e-003
  9.0119818e-003
  9.0119818e-003
  7.3121742e-003
  1.0606650e-002
 -2.0595105e-003
 -4.6618945e-003
 -4.6618945e-003
 -2.2622105e-003
  1.1904811e-004
 -1.5444313e-002
 -8.9689109e-003
 -8.9689109e-003
  2.2352568e-002
  1.7565810e-002
  1.4810530e-002
  2.6021056e-002
  2.6021056e-002
  1.9213910e-002
  1.7442416e-002
  1.8673655e-002
  2.5870746e-002
  2.5870746e-002
  3.8984673e-002
  3.5060833e-002
  2.8181305e-002
  3.5300849e-002
  3.5300849e-002
  2.4435850e-002
  1.5651785e-002
  1.1919647e-002
  4.2351224e-003
  4.2351224e-003
  1.0557052e-002
  1.6828059e-002
  5.1220816e-003
  1.2434927e-002
  1.2434927e-002
  1.3713264e-002
 -2.9444591e-003
  1.2404146e-002
  2.3644355e-002
  2.3644355e-002
  3.1805282e-002
  3.5915926e-002
  2.3062512e-002
  1.9277661e-002
  1.9277661e-002
  2.6479166e-002
  2.8642503e-002
  3.6763729e-002
  3.4859401e-002
  3.4859401e-002
  2.4007453e-002
  3.7146223e-002
  3.0259362e-002
  3.8367457e-002
  3.8367457e-002
  6.8318963e-002
  3.6278374e-002
  2.5078187e-003
  1.4825952e-002
  1.4825952e-002
  1.5093135e-002
 -9.5388645e-003
 -6.0827507e-003
  7.5026906e-002
  7.5026906e-002
  1.1663177e-001
  8.8180402e-002
  9.6808216e-002
  6.9510791e-002
  6.9510791e-002
  5.0402520e-002
  5.1367931e-002
  5.2324797e-002
  7.6178938e-002
  7.6178938e-002
  7.5934872e-002
  8.6646254e-002
  6.8387001e-002
  6.0234824e-002
  6.0234824e-002
  7.5054106e-002
  6.8836773e-002
  7.2628036e-002
  6.8419667e-002
  6.8419667e-002
  7.7191184e-002
  8.8877131e-002
  9.2498340e-002
  9.2104236e-002
  9.2104236e-002
  9.2707171e-002
  1.1521295e-001
  1.2060148e-001
  1.1299614e-001
  1.1299614e-001
  1.2138463e-001
  1.1177516e-001
  1.2813496e-001
  1.3639042e-001
  1.3639042e-001
  1.0673041e-001
  1.0419964e-001
  1.1164603e-001
  1.1006557e-001
  1.1006557e-001
  1.0451163e-001
  1.1393904e-001
  1.2229055e-001
  1.2061151e-001
  1.2061151e-001
  1.2591436e-001
  1.3714591e-001
  1.5824093e-001
  1.4828600e-001
  1.4828600e-001
  1.3442470e-001
  1.4955425e-001
  1.5658866e-001
  1.6953653e-001
  1.6953653e-001
  1.7440641e-001
  1.6927236e-001
  1.8210163e-001
  1.7689439e-001
  1.7689439e-001
  1.7072861e-001
  1.6460823e-001
  1.6849212e-001
  1.7731881e-001
  1.7731881e-001
  1.5917867e-001
  1.5512482e-001
  1.5408727e-001
  1.5305369e-001
  1.5305369e-001
  1.4106911e-001
  1.3415792e-001
  1.6613959e-001
  1.7494903e-001
  1.7494903e-001
  1.5579586e-001
  1.6866354e-001
  1.9337177e-001
  1.7504819e-001
  1.7504819e-001
  1.5288546e-001
  1.5480101e-001
  1.8258972e-001
  1.8823571e-001
  1.8823571e-001
  1.7391163e-001
  1.6766653e-001
  1.4154924e-001
  1.4452238e-001
  1.4452238e-001
  1.5344221e-001
  1.5431716e-001
  1.6314741e-001
  1.5994954e-001
  1.5994954e-001
  1.6274826e-001
  1.5257225e-001
  1.5044191e-001
  1.3537753e-001
  1.3537753e-001
  1.4732151e-001
  1.6912225e-001
  1.6982541e-001
  1.8147236e-001
  1.8147236e-001
  1.5517394e-001
  1.3107740e-001
  1.5896071e-001
  1.8661098e-001
  1.8661098e-001
  1.7817662e-001
  1.4192014e-001
  1.2886133e-001
  1.4478635e-001
  1.4478635e-001
  1.4065843e-001
  1.2958838e-001
  1.2458008e-001
  1.2757592e-001
  1.2757592e-001
  1.2954722e-001
  1.3647771e-001
  1.4334707e-001
  1.3621292e-001
  1.3621292e-001
  1.3012853e-001
  1.2508550e-001
  1.3402223e-001
  1.4188557e-001
  1.4188557e-001
  1.3673316e-001
  1.0970845e-001
  1.1078634e-001
  1.3276570e-001
  1.3276570e-001
  1.1970429e-001
  1.1272108e-001
  1.0379937e-001
  9.4947101e-002
  9.4947101e-002
  9.5127130e-002
  9.4306560e-002
  9.2493592e-002
  9.2684104e-002
  9.2684104e-002
  8.6894472e-002
  7.7165582e-002
  7.6476710e-002
  7.5790828e-002
  7.5790828e-002
  8.2079256e-002
  8.7317525e-002
  8.4542712e-002
  8.0791743e-002
  8.0791743e-002
  7.7068621e-002
  7.0385525e-002
  6.0766874e-002
  5.7200119e-002
  5.7200119e-002
  5.8639991e-002
  5.7078276e-002
  3.5609196e-002
  2.8256953e-002
  2.8256953e-002
  3.1918664e-002
  2.8577889e-002
  3.1238736e-002
  3.2880719e-002
  3.2880719e-002
  2.7536687e-002
  3.1198394e-002
  2.3874009e-002
  1.5612634e-002
  1.5612634e-002
  4.4266545e-002
  6.2725493e-002
  8.0035338e-002
  8.2262235e-002
  8.2262235e-002
  6.5545805e-002
  2.2074247e-002
 -1.7059225e-002
  7.8654596e-003
  7.8654596e-003
  1.3663729e-002
 -9.4672759e-003
 -2.3445919e-002
 -1.6395714e-002
 -1.6395714e-002
  6.5316598e-003
  5.3694744e-003
 -3.7508210e-003
 -3.8334940e-003
 -3.8334940e-003
 -9.8909873e-003
 -9.9234038e-003
 -9.9554241e-003
 -2.5921509e-002
 -2.5921509e-002
 -3.7772775e-002
 -2.9608004e-002
  5.3802128e-003
  5.2253675e-003
  5.2253675e-003
 -1.3850754e-002
 -1.8976288e-003
  8.9617345e-003
 -5.1657761e-003
 -5.1657761e-003
 -3.5112266e-002
 -2.6968596e-002
 -3.9522399e-003
 -1.1997135e-002
 -1.1997135e-002
 -1.4000625e-002
 -4.0885049e-002
 -5.4601741e-002
 -4.4302953e-002
 -4.4302953e-002
 -5.7988750e-002
 -3.9691969e-002
 -3.0506755e-002
 -2.6375305e-002
 -2.6375305e-002
 -2.0285111e-002
 -2.5199138e-002
 -2.3100984e-002
 -3.3966124e-002
 -3.3966124e-002
 -2.6815190e-002
 -2.2709693e-002
 -2.7600294e-002
 -2.5478816e-002
 -2.5478816e-002
 -3.7316636e-002
 -3.7105730e-002
 -3.3907744e-002
 -5.1648893e-002
 -5.1648893e-002
 -5.5300755e-002
 -5.3941527e-002
 -4.9604029e-002
 -4.1316847e-002
 -4.1316847e-002
 -4.7038815e-002
 -5.0720743e-002
 -4.7399663e-002
 -5.0079687e-002
 -5.0079687e-002
 -5.2736235e-002
 -5.1385791e-002
 -4.2077542e-002
 -4.3799029e-002
 -4.3799029e-002
 -4.7496880e-002
 -5.5146618e-002
 -5.5760730e-002
 -3.6449965e-002
 -3.6449965e-002
 -4.0201729e-002
 -3.8942035e-002
 -3.5699607e-002
 -5.9371968e-002
 -5.9371968e-002
 -6.8906218e-002
 -7.7364371e-002
 -6.1849150e-002
 -4.6458760e-002
 -4.6458760e-002
 -4.6131249e-002
 -3.5845880e-002
 -3.3610675e-002
 -2.9400854e-002
 -2.9400854e-002
 -3.9167159e-002
 -1.8975230e-002
 -1.0898631e-002
 -3.6748461e-002
 -3.6748461e-002
 -4.4459482e-002
 -5.2105999e-002
 -4.5745626e-002
 -4.2423454e-002
 -4.2423454e-002
 -5.8049210e-002
 -4.7651785e-002
 -4.7296817e-002
 -1.7066060e-002
 -1.7066060e-002
 -1.0983586e-002
 -8.3626871e-002
 -7.7992945e-002
 -4.8500769e-002
 -4.8500769e-002
 -5.6096514e-002
 -5.2673319e-002
 -5.2264037e-002
 -3.4925961e-002
 -3.4925961e-002
 -2.9679283e-002
 -5.4351588e-002
 -5.6910439e-002
 -4.0524253e-002
 -4.0524253e-002
 -4.7176421e-002
 -3.6842212e-002
 -3.6550247e-002
 -5.5181562e-002
 -5.5181562e-002
 -4.8761054e-002
 -6.8284840e-002
 -8.5654842e-002
 -7.5990487e-002
 -7.5990487e-002
 -4.1504927e-002
 -3.6181048e-002
 -5.0817473e-002
 -5.6369307e-002
 -5.6369307e-002
 -6.0877865e-002
 -5.5388385e-002
 -6.6872190e-002
 -5.1370356e-002
 -5.1370356e-002
 -4.3960656e-002
 -4.5573081e-002
 -2.3268986e-002
 -1.5088995e-002
 -1.5088995e-002
 -2.9881038e-002
 -4.4551018e-002
 -5.1132207e-002
 -6.4629069e-002
 -6.4629069e-002
 -5.7099301e-002
 -2.7719155e-002
 -2.9451156e-002
 -4.5110513e-002
 -4.5110513e-002
 -5.5660660e-002
 -5.9151204e-002
 -5.4643836e-002
 -4.4195900e-002
 -4.4195900e-002
 -4.0803060e-002
 -4.1420033e-002
 -3.6054975e-002
 -2.8740585e-002
 -2.8740585e-002
 -2.5468467e-002
 -3.2181100e-002
 -4.2821202e-002
 -1.4532442e-002
 -1.4532442e-002
 -1.4128426e-003
 -4.4170875e-002
 -6.6659578e-002
 -4.3150411e-002
 -4.3150411e-002
 -2.1823607e-002
 -2.9551436e-002
 -3.7214885e-002
 -4.0830605e-002
 -4.0830605e-002
 -4.0431565e-002
 -4.8001443e-002
 -5.2519889e-002
 -5.0028079e-002
 -5.0028079e-002
 -4.6558829e-002
 -3.4153014e-002
 -3.3798087e-002
 -3.1452881e-002
 -3.1452881e-002
 -1.7174706e-002
 -2.0938712e-002
 -2.3675091e-002
 -2.4396247e-002
 -2.4396247e-002
 -2.5110438e-002
 -3.5776732e-002
 -1.7473157e-002
 -1.1269227e-002
 -1.1269227e-002
 -4.4951532e-002
 -1.9598367e-002
 -4.3250844e-002
 -7.4675455e-002
 -7.4675455e-002
 -5.0069759e-002
 -4.5581350e-002
 -3.4156500e-002
 -3.3778567e-002
 -3.3778567e-002
 -4.3361339e-002
 -3.0954137e-002
 -7.6920980e-003
 -7.5254757e-003
 -7.5254757e-003
 -2.3294126e-002
 -3.2957352e-002
 -2.5609803e-002
 -4.3785103e-003
 -4.3785103e-003
 -2.3156497e-002
 -3.2816741e-002
 -9.5317726e-003
 -2.0297272e-002
 -2.0297272e-002
 -1.0966497e-003
 -9.7482751e-004
 -2.3759440e-002
 -3.3409910e-002
 -3.3409910e-002
 -5.9910403e-002
 -3.8388524e-002
 -2.0028699e-002
 -2.7711475e-002
 -2.7711475e-002
 -5.4530666e-003
  6.6648408e-003
 -1.5176942e-002
 -2.5884368e-002
 -2.5884368e-002
 -1.1605455e-002
 -4.4138830e-003
 -8.2355620e-003
 -2.0663431e-003
 -2.0663431e-003
 -3.4787398e-002
 -6.8235329e-002
 -2.2730766e-002
  1.6427452e-002
  1.6427452e-002
  1.4865189e-003
 -1.9307382e-002
 -1.7024493e-002
 -1.6751151e-002
 -1.6751151e-002
 -2.9425875e-002
 -3.3032497e-002
 -3.3620452e-002
 -2.2251264e-002
 -2.2251264e-002
 -1.1969821e-002
 -4.7593788e-003
 -5.9507149e-004
 -5.4275559e-003
 -5.4275559e-003
 -1.3207691e-002
 -1.1960271e-002
 -7.7345658e-003
 -1.4497718e-002
 -1.4497718e-002
 -1.1245679e-002
 -5.0317642e-003
  8.1032177e-003
  7.1882631e-003
  7.1882631e-003
  4.2891160e-003
  7.3893259e-003
  4.4888943e-003
  1.0575534e-002
  1.0575534e-002
  2.6697793e-003
  6.7797900e-003
  2.1811286e-002
  2.5764590e-002
  2.5764590e-002
  2.4705561e-002
  2.8634251e-002
  3.8505650e-002
  5.5266744e-002
  5.5266744e-002
  6.3922081e-002
  5.6570408e-002
  5.5252719e-002
  5.9919720e-002
  5.9919720e-002
  5.9567380e-002
  6.1208071e-002
  6.2833629e-002
  6.2452313e-002
  6.2452313e-002
  8.3982227e-002
  7.0476990e-002
  3.8157947e-002
  3.4983376e-002
  3.4983376e-002
  5.5735583e-002
  5.5402580e-002
  9.2591705e-003
  2.3332513e-003
  2.3332513e-003
 -1.5481126e-003
 -1.5356431e-002
 -6.1452549e-003
  2.2909193e-002
  2.2909193e-002
  1.3881287e-002
 -6.0279170e-003
  1.0078687e-002
  2.1518767e-003
  2.1518767e-003
  1.2614265e-003
  2.2288394e-002
  3.6171673e-002
  3.4006067e-002
  3.4006067e-002
  4.5799970e-002
  4.9528971e-002
  2.7332612e-002
  3.0214684e-002
  3.0214684e-002
  3.9047882e-002
  1.5938911e-002
  2.4887534e-002
  3.1770627e-002
  3.1770627e-002
 -9.2067273e-003
 -1.8975463e-002
 -1.3724866e-002
 -1.3495980e-002
 -1.3495980e-002
 -1.3268237e-002
 -1.1049825e-002
 -8.8489017e-003
 -1.6624433e-002
 -1.6624433e-002
 -2.0351940e-002
 -1.5084873e-002
 -1.6831404e-002
 -3.1509554e-002
 -3.1509554e-002
 -3.5111412e-002
 -3.2706932e-002
 -3.3308430e-002
 -3.6891307e-002
 -3.6891307e-002
 -4.1439258e-002
 -3.9972910e-002
 -4.0508710e-002
 -4.7013883e-002
 -4.7013883e-002
 -4.8484461e-002
 -3.3010709e-002
 -3.0608785e-002
 -3.9180089e-002
 -3.9180089e-002
 -3.9712445e-002
 -3.9242881e-002
 -2.9812372e-002
 -2.5437146e-002
 -2.5437146e-002
 -2.6076017e-002
 -2.5712544e-002
 -2.1367220e-002
 -3.1994916e-002
 -3.1994916e-002
 -4.6517914e-002
 -4.0006285e-002
 -4.0517521e-002
 -3.4051531e-002
 -3.4051531e-002
 -2.4649190e-002
 -1.7314335e-002
 -1.6013923e-002
 -3.8624925e-002
 -3.8624925e-002
 -3.0176382e-002
 -1.2832391e-002
 -1.6543373e-002
 -2.0223080e-002
 -2.0223080e-002
 -2.8851164e-002
 -2.5456511e-002
 -2.8063796e-002
 -1.9693495e-002
 -1.9693495e-002
 -2.0353710e-002
 -3.0966491e-002
 -2.0577093e-002
 -1.7242876e-002
 -1.7242876e-002
 -2.7877595e-002
 -1.5518245e-002
  7.2459481e-004
 -2.2005230e-002
 -2.2005230e-002
 -1.4670966e-002
 -2.4326130e-002
 -4.8839688e-002
 -4.6261378e-002
 -4.6261378e-002
 -3.6730853e-002
 -2.6280693e-002
 -2.8861415e-002
 -1.4489282e-002
 -1.4489282e-002
 -1.2296433e-003
 -1.0983729e-002
 -3.0616308e-002
  1.6638632e-002
  1.6638632e-002
  2.6658661e-002
 -2.0170208e-002
 -1.1840403e-002
 -1.2541005e-002
 -1.2541005e-002
 -7.2596035e-003
 -3.4885526e-002
 -4.9337230e-002
 -1.7857114e-002
 -1.7857114e-002
 -4.0412130e-002
 -6.5768651e-002
 -7.2988939e-002
 -8.8114519e-002
 -8.8114519e-002
 -1.1108024e-001
 -1.0995232e-001
 -1.0982535e-001
 -1.4554777e-001
 -1.4554777e-001
 -1.3615709e-001
 -1.1090364e-001
 -1.4162301e-001
 -1.5415968e-001
 -1.5415968e-001
 -1.3870283e-001
 -1.4328522e-001
 -1.5479608e-001
 -1.5226440e-001
 -1.5226440e-001
 -1.2485013e-001
 -1.0064290e-001
 -9.0572240e-002
 -7.5600733e-002
 -7.5600733e-002
 -3.9834481e-002
  9.5839804e-003
  5.3619208e-002
  8.2354695e-002
  8.2354695e-002
  8.8943236e-002
  1.1937724e-001
  1.7545253e-001
  2.2210095e-001
  2.2210095e-001
  2.7035293e-001
  3.0724697e-001
  3.4084190e-001
  3.8809391e-001
  3.8809391e-001
  4.3096345e-001
  4.6350945e-001
  4.8282750e-001
  4.7707420e-001
  4.7707420e-001
  4.6936046e-001
  4.7663291e-001
  4.8183838e-001
  4.7901812e-001
  4.7901812e-001
  4.8118456e-001
  4.8331729e-001
  4.7147384e-001
  4.4078931e-001
  4.4078931e-001
  3.8245559e-001
  3.2657778e-001
  3.0301476e-001
  2.7266284e-001
  2.7266284e-001
  2.4354576e-001
  2.2959703e-001
  2.3666850e-001
  2.4467000e-001
  2.4467000e-001
  2.2471241e-001
  2.4076283e-001
  2.3177615e-001
  1.7007208e-001
  1.7007208e-001
  1.5866173e-001
  1.5132273e-001
  1.6594829e-001
  2.2426821e-001
  2.2426821e-001
  1.8948447e-001
  8.5265192e-002
  4.8620374e-002
  6.2068397e-002
  6.2068397e-002
  5.1502383e-002
  2.1102629e-002
 -2.0782922e-003
 -1.0131393e-002
 -1.0131393e-002
 -2.1106352e-002
 -4.1950237e-002
 -4.5692262e-002
 -6.3345132e-002
 -6.3345132e-002
 -1.0973308e-001
 -1.1689815e-001
 -1.2898054e-001
 -1.8876349e-001
 -1.8876349e-001
 -2.1917041e-001
 -2.3139537e-001
 -2.4650057e-001
 -2.6744966e-001
 -2.6744966e-001
 -3.0116545e-001
 -3.2662844e-001
 -3.2199534e-001
 -3.3830343e-001
 -3.3830343e-001
 -3.6542188e-001
 -3.8533510e-001
 -3.7917915e-001
 -3.6907720e-001
 -3.6907720e-001
 -3.8892256e-001
 -3.9365402e-001
 -4.4414509e-001
 -4.5636400e-001
 -4.5636400e-001
 -4.3161912e-001
 -4.4391032e-001
 -4.4612688e-001
 -4.6324866e-001
 -4.6324866e-001
 -4.8121052e-001
 -4.9801316e-001
 -4.8677604e-001
 -4.8059357e-001
 -4.8059357e-001
 -4.7544097e-001
 -4.5039600e-001
 -4.2952376e-001
 -4.1876624e-001
 -4.1876624e-001
 -4.0907793e-001
 -3.8451591e-001
 -3.6213296e-001
 -3.4191197e-001
 -3.4191197e-001
 -3.1487279e-001
 -2.9800240e-001
 -2.6731651e-001
 -2.1595777e-001
 -2.1595777e-001
 -2.0484700e-001
 -1.9481528e-001
 -1.8087457e-001
 -1.7002861e-001
 -1.7002861e-001
 -1.5727294e-001
 -1.7847610e-001
 -1.5767106e-001
 -1.2009954e-001
 -1.2009954e-001
 -1.0175240e-001
 -7.7575485e-002
 -9.2432920e-002
 -1.1413615e-001
 -1.1413615e-001
 -8.7853757e-002
 -5.7798701e-002
 -5.4875844e-002
 -4.3010917e-002
 -4.3010917e-002
 -3.9207785e-002
 -5.1367889e-002
 -5.2470904e-002
 -3.5635863e-002
 -3.5635863e-002
 -3.1882998e-002
 -2.7162823e-002
 -2.4471113e-002
 -2.6779081e-002
 -2.6779081e-002
 -1.2135889e-002
 -1.2549534e-002
 -2.9993056e-003
  5.4780746e-003
  5.4780746e-003
 -1.1010595e-002
 -2.5371244e-002
 -1.7702709e-002
 -7.1075234e-003
 -7.1075234e-003
 -1.2532138e-002
 -1.6915031e-002
 -1.3293245e-002
 -9.6995730e-003
 -9.6995730e-003
 -1.7088844e-002
 -1.5102888e-003
  1.3942007e-002
  1.4330003e-002
  1.4330003e-002
  7.7275016e-004
 -7.6931111e-003
  9.8050566e-003
  1.2222338e-002
  1.2222338e-002
  9.6409880e-003
  1.1065094e-002
  5.5069197e-003
  9.9096768e-004
  9.9096768e-004
  1.4924840e-003
 -8.9491965e-007
  4.4944216e-003
 -2.9969457e-003
 -2.9969457e-003
 -3.4545733e-003
  3.0640493e-003
 -1.4245990e-003
  9.0631233e-003
  9.0631233e-003
  9.5068283e-003
  7.9558490e-003
  5.4224495e-003
  9.1884368e-004
  9.1884368e-004
 -1.5550937e-003
  8.9390682e-003
  1.9348205e-002
 -2.1962556e-003
 -2.1962556e-003
  3.3826261e-004
  7.8326409e-003
  7.2993294e-003
  1.7916902e-003
  1.7916902e-003
 -1.3628941e-002
 -1.5975213e-002
 -4.0210568e-002
 -2.1421487e-002
 -2.1421487e-002
  3.4064222e-002
  1.3407554e-002
 -4.0918829e-003
  3.0339970e-002
  3.0339970e-002
  2.9633755e-002
  1.5986656e-002
  2.8345179e-002
  2.5664238e-002
  2.5664238e-002
  8.0668816e-003
  1.7503610e-002
  2.8855489e-002
  2.8163826e-002
  2.8163826e-002
  3.3453375e-002
  3.2724213e-002
  2.2041954e-002
  1.4435079e-002
  1.4435079e-002
  2.4817254e-002
  1.9180330e-002
  1.3589922e-002
  2.6968010e-002
  2.6968010e-002
  1.3347489e-002
  1.0793893e-002
  2.2204537e-002
  3.4518121e-002
  3.4518121e-002
  5.5694079e-002
  5.4786224e-002
  4.9901403e-002
  5.4019041e-002
  5.4019041e-002
  5.2126837e-002
  4.0290373e-002
  3.3529899e-002
  4.1763179e-002
  4.1763179e-002
  4.7936986e-002
  3.6133487e-002
  2.3430417e-002
  3.8716765e-002
  3.8716765e-002
  4.7902454e-002
  4.0082110e-002
  4.2284431e-002
  3.0525708e-002
  3.0525708e-002
  1.6871320e-002
  3.9181566e-002
  7.0272255e-002
  7.6209827e-002
  7.6209827e-002
  6.2179243e-002
  6.1209047e-002
  6.1241644e-002
  6.1272927e-002
  6.1272927e-002
  6.8274227e-002
  7.1233378e-002
  6.2216095e-002
  5.6259148e-002
  5.6259148e-002
  5.3337713e-002
  6.0398392e-002
  6.0428970e-002
  6.8425474e-002
  6.8425474e-002
  5.1457681e-002
  2.5664719e-002
  7.5771419e-002
  8.2643016e-002
  8.2643016e-002
  5.7587694e-002
  8.8506845e-002
  9.5269493e-002
  9.9982785e-002
  9.9982785e-002
  1.0565102e-001
  1.0230716e-001
  1.0795126e-001
  1.1055878e-001
  1.1055878e-001
  1.1413808e-001
  1.2864012e-001
  1.3206521e-001
  1.1155706e-001
  1.1155706e-001
  1.1013587e-001
  8.9801282e-002
  1.1245464e-001
  1.5185023e-001
  1.5185023e-001
  1.3813656e-001
  1.5042469e-001
  1.5464089e-001
  1.3392063e-001
  1.3392063e-001
  1.2830462e-001
  1.3667365e-001
  1.4596634e-001
  1.4721168e-001
  1.4721168e-001
  1.3848361e-001
  1.7065503e-001
  1.8662396e-001
  1.6062882e-001
  1.6062882e-001
  1.6671043e-001
  1.6875380e-001
  1.6380413e-001
  1.7781226e-001
  1.7781226e-001
  1.8273740e-001
  1.6072737e-001
  1.5482697e-001
  1.7088010e-001
  1.7088010e-001
  1.6090333e-001
  1.4303608e-001
  1.5020827e-001
  1.7723540e-001
  1.7723540e-001
  1.8013447e-001
  1.8798383e-001
  1.8580418e-001
  1.6969396e-001
  1.6969396e-001
  2.0051772e-001
  1.9124706e-001
  1.6909947e-001
  1.7999255e-001
  1.7999255e-001
  1.7485648e-001
  1.6178972e-001
  1.9065272e-001
  2.3222046e-001
  2.3222046e-001
  2.1468261e-001
  2.0524852e-001
  2.2277440e-001
  2.1525223e-001
  2.1525223e-001
  1.9882150e-001
  1.9745726e-001
  1.9510191e-001
  2.0371446e-001
  2.0371446e-001
  2.0627456e-001
  1.9088076e-001
  2.0050419e-001
  2.0506288e-001
  2.0506288e-001
  2.0161035e-001
  2.0714256e-001
  2.0166779e-001
  2.0519425e-001
  2.0519425e-001
  2.0370557e-001
  2.1417315e-001
  2.0363406e-001
  1.6628493e-001
  1.6628493e-001
  1.9396936e-001
  2.1544554e-001
  1.7897648e-001
  1.6470944e-001
  1.6470944e-001
  1.5254530e-001
  1.6138942e-001
  1.9604926e-001
  1.5871400e-001
  1.5871400e-001
  1.5653521e-001
  1.7727467e-001
  1.6198596e-001
  1.6175525e-001
  1.6175525e-001
  1.7745531e-001
  1.8306186e-001
  1.6371866e-001
  1.6145830e-001
  1.6145830e-001
  1.5522718e-001
  1.6796376e-001
  1.6465588e-001
  1.4842253e-001
  1.4842253e-001
  1.5821016e-001
  1.4899003e-001
  1.5079493e-001
  1.4560841e-001
  1.4560841e-001
  1.3747138e-001
  1.4333860e-001
  1.3620596e-001
  1.1319227e-001
  1.1319227e-001
  1.0729294e-001
  1.2235186e-001
  1.3429547e-001
  1.4613655e-001
  1.4613655e-001
  1.3795744e-001
  1.2784835e-001
  1.1781721e-001
  1.2081044e-001
  1.2081044e-001
  1.3572555e-001
  1.2661202e-001
  9.8646119e-002
  9.4806767e-002
  9.4806767e-002
  1.1788454e-001
  9.6949426e-002
  7.1202198e-002
  6.3588843e-002
  6.3588843e-002
  7.3961350e-002
  7.3291110e-002
  7.2623361e-002
  6.0007255e-002
  6.0007255e-002
  4.3508125e-002
  6.4986222e-002
  6.3380201e-002
  6.9751855e-002
  6.9751855e-002
  6.9097184e-002
  5.9481842e-002
  5.4922058e-002
  6.4339780e-002
  6.4339780e-002
  6.1726911e-002
  4.5190086e-002
  5.4679843e-002
  5.2138728e-002
  5.2138728e-002
  3.9656991e-002
  2.5283548e-002
  2.0985189e-002
  2.6679683e-002
  2.6679683e-002
  2.4358870e-002
  1.9067875e-002
  1.7802482e-002
  3.5994544e-003
  3.5994544e-003
  2.4585401e-003
  1.5268887e-002
  2.5981540e-002
  3.8596904e-002
  3.8596904e-002
  3.4176823e-002
  2.7799277e-002
  2.7447709e-002
  2.7097439e-002
  2.7097439e-002
  2.1768945e-002
  2.7437564e-002
  3.1066444e-002
  2.4704907e-002
  2.4704907e-002
  2.7357013e-002
  1.9030901e-002
  6.7879306e-003
 -7.3476598e-003
 -7.3476598e-003
 -2.8339442e-002
 -2.4261736e-002
  7.6680689e-003
 -5.0026335e-004
 -5.0026335e-004
 -8.6024781e-003
 -4.6880002e-003
  7.1611779e-003
  3.2855207e-002
  3.2855207e-002
  3.3439785e-002
  2.6050541e-002
  2.7856824e-003
 -3.7168403e-004
 -3.7168403e-004
  1.0438730e-002
  1.2196578e-002
  8.9594254e-003
  5.7477348e-003
  5.7477348e-003
  4.5532120e-003
 -3.6037298e-003
 -9.7027615e-003
 -8.7809852e-003
 -8.7809852e-003
 -6.8712552e-003
 -3.9817133e-003
 -1.2071312e-002
 -1.1729072e-003
 -1.1729072e-003
  1.6607050e-002
 -1.1571198e-002
 -1.4621800e-002
 -1.4659973e-002
 -1.4659973e-002
  5.2200200e-003
  4.0226105e-003
 -4.6961046e-002
 -4.6735921e-002
 -4.6735921e-002
 -1.8626476e-002
 -1.2656816e-002
 -1.3707574e-002
 -8.7745694e-003
 -8.7745694e-003
 -4.1726654e-002
 -6.3453699e-002
 -4.5165536e-002
 -3.8976926e-002
 -3.8976926e-002
 -3.0846498e-002
 -4.0708474e-002
 -3.7542404e-002
 -3.6393461e-002
 -3.6393461e-002
 -6.3138689e-002
 -4.7835869e-002
 -3.8632666e-002
 -3.6475420e-002
 -3.6475420e-002
 -2.5372136e-002
 -3.5273438e-002
 -3.5134249e-002
 -2.6032562e-002
 -2.6032562e-002
 -2.2980515e-002
 -1.5969709e-002
 -1.7979495e-002
 -2.3956536e-002
 -2.3956536e-002
 -2.2913254e-002
 -2.9845635e-002
 -5.8630891e-002
 -6.0290106e-002
 -6.0290106e-002
 -2.6081865e-002
 -2.9997432e-002
 -3.6868352e-002
 -3.4719387e-002
 -3.4719387e-002
 -2.6612061e-002
 -2.4546206e-002
 -2.9468399e-002
 -1.7419651e-002
 -1.7419651e-002
 -2.8375265e-002
 -3.2269684e-002
 -2.3185082e-002
 -2.3197378e-004
 -2.3197378e-004
 -1.3319701e-002
 -2.0325207e-002
 -3.3717168e-003
 -1.5438579e-002
 -1.5438579e-002
 -1.2468361e-002
 -9.5226592e-003
 -1.3572697e-002
 -9.6225877e-003
 -9.6225877e-003
 -4.7091970e-003
 -2.7721774e-002
 -2.7640139e-002
 -2.0587567e-002
 -2.0587567e-002
 -2.8531169e-002
 -1.0516017e-002
 -3.1488693e-002
 -4.6314066e-002
 -4.6314066e-002
 -4.0103342e-002
 -2.0995941e-002
  2.3848803e-002
  3.3468836e-002
  3.3468836e-002
 -6.7867346e-003
 -1.1856972e-002
  2.0361658e-003
 -3.3980184e-002
 -3.3980184e-002
 -6.2730251e-002
 -7.4313439e-002
 -3.3017173e-002
 -1.0211960e-003
 -1.0211960e-003
 -2.2070308e-002
 -2.0041436e-002
 -2.6992246e-002
 -4.3844992e-002
 -4.3844992e-002
 -3.6657423e-002
 -2.5544402e-002
 -1.2530200e-002
 -6.5939315e-003
 -6.5939315e-003
 -9.6697348e-003
 -1.5708404e-002
 -1.3730572e-002
 -7.7854609e-003
 -7.7854609e-003
 -1.4836069e-002
 -1.1870123e-002
 -8.9286543e-003
 -1.2982887e-002
 -1.2982887e-002
 -1.6008259e-002
 -1.9008985e-002
 -3.0948298e-002
 -2.6855124e-002
 -2.6855124e-002
 -3.0762366e-002
 -4.9575808e-002
 -4.5328605e-002
 -3.1156183e-002
 -3.1156183e-002
 -8.1360663e-003
 -1.0202090e-002
 -2.6194145e-002
 -3.1100244e-002
 -3.1100244e-002
 -2.7002667e-002
 -1.4971063e-002
 -6.0256450e-003
  8.5442388e-004
  8.5442388e-004
 -9.2527584e-003
 -4.3390499e-003
 -4.4454979e-003
 -1.7498285e-002
 -1.7498285e-002
 -2.7456668e-002
 -1.6419343e-002
 -6.4682185e-003
 -1.7512821e-002
 -1.7512821e-002
 -2.6475340e-002
 -3.0384782e-002
 -1.9323293e-002
 -2.3290752e-002
 -2.3290752e-002
 -2.9217404e-002
 -3.0115704e-002
 -1.5071791e-002
 -1.1468716e-003
 -1.1468716e-003
 -2.4184799e-002
 -2.6120183e-002
 -3.1418735e-003
 -6.2454193e-003
 -6.2454193e-003
 -3.5217477e-002
 -1.5152800e-002
  1.7600335e-003
 -1.0347273e-002
 -1.0347273e-002
 -1.3392709e-002
 -2.0397010e-002
 -2.4356246e-002
 -3.0274698e-002
 -3.0274698e-002
 -2.7181208e-002
 -2.6104497e-002
 -2.1052690e-002
 -5.0871287e-003
 -5.0871287e-003
 -4.1910736e-003
 -6.2905055e-003
 -4.3895381e-003
 -7.4840753e-003
 -7.4840753e-003
 -7.5659417e-003
 -7.6474769e-003
 -1.4700007e-002
 -7.8099756e-004
 -7.8099756e-004
  1.9994973e-002
  1.4706323e-002
 -1.0458253e-002
 -2.1474682e-002
 -2.1474682e-002
 -1.4474653e-002
 -1.7491001e-002
 -2.3470408e-002
 -1.9441698e-002
 -1.9441698e-002
 -1.8433578e-002
 -1.7433674e-002
 -3.4952035e-003
 -1.1581048e-002
 -1.1581048e-002
 -1.4621469e-002
 -1.4649422e-002
 -9.6977275e-003
 -6.7785905e-003
 -6.7785905e-003
 -8.9597246e-004
 -9.0046632e-003
 -2.4018675e-002
  9.8895607e-003
  9.8895607e-003
  1.7626150e-002
  9.3638420e-003
 -1.6758092e-002
 -3.6691071e-002
 -3.6691071e-002
 -3.3554659e-002
 -2.8451549e-002
 -1.5422568e-002
  4.8753042e-004
  4.8753042e-004
  8.2997152e-003
 -8.8320366e-004
  1.4905985e-002
 -6.2834458e-003
 -6.2834458e-003
  5.5648020e-003
  3.9225281e-002
  1.8829844e-002
  1.8517997e-002
  1.8517997e-002
  1.8207475e-002
  4.2795868e-002
  6.7181187e-002
  7.5429809e-002
  7.5429809e-002
  6.0702054e-002
  3.4141202e-002
  4.6635973e-002
  4.1100122e-002
  4.1100122e-002
  4.7558356e-002
  7.6867335e-002
  1.0095394e-001
  8.0023908e-002
  8.0023908e-002
  3.7351760e-002
  4.1834039e-002
  4.9265304e-002
  4.2690827e-002
  4.2690827e-002
  4.6127021e-002
  4.2561558e-002
  4.1014930e-002
  5.1429718e-002
  5.1429718e-002
  5.7773313e-002
  4.4144323e-002
  4.4567219e-002
  4.5980347e-002
  4.5980347e-002
  4.8375561e-002
  7.1662821e-002
  3.3010521e-002
 -6.3235160e-003
 -6.3235160e-003
 -8.4880558e-003
 -2.6681240e-003
  5.0953822e-003
  5.8231773e-003
  5.8231773e-003
  5.5481804e-003
  2.2867905e-003
  1.3989799e-002
  3.3563140e-002
  3.3563140e-002
  4.1023733e-002
  3.6470355e-002
  2.5976800e-002
  3.2497770e-002
  3.2497770e-002
  5.0914415e-002
  3.5317285e-002
  1.3870294e-002
 -1.4271697e-003
 -1.4271697e-003
 -8.6330648e-003
 -1.8378822e-003
 -1.5017046e-002
 -3.0080543e-002
 -3.0080543e-002
 -2.7094385e-002
 -5.2017812e-002
 -6.0802040e-002
 -5.3578721e-002
 -5.3578721e-002
 -5.3384752e-002
 -2.1322422e-002
  5.1869106e-004
 -2.4627018e-002
 -2.4627018e-002
 -5.5542498e-002
 -4.9355677e-002
 -5.5169383e-002
 -6.5913976e-002
 -6.5913976e-002
 -6.7606126e-002
 -4.8368939e-002
 -4.1238992e-002
 -6.9023321e-002
 -6.9023321e-002
 -6.7697701e-002
 -6.8373183e-002
 -7.9996513e-002
 -8.5547426e-002
 -8.5547426e-002
 -7.9099954e-002
 -6.3740114e-002
 -6.9418394e-002
 -8.8991270e-002
 -8.8991270e-002
 -8.0516525e-002
 -8.9039415e-002
 -8.3547663e-002
 -4.9217474e-002
 -4.9217474e-002
 -5.8986742e-002
 -7.4650247e-002
 -9.0183847e-002
 -7.9694580e-002
 -7.9694580e-002
 -2.4473378e-002
 -3.2445411e-002
 -5.4294474e-002
 -3.4135768e-002
 -3.4135768e-002
 -3.3063538e-002
 -2.7020083e-002
 -3.8952033e-002
 -7.5683349e-002
 -7.5683349e-002
 -6.0325453e-002
 -4.3099913e-002
 -7.2821855e-002
 -7.2421857e-002
 -7.2421857e-002
 -6.0072467e-002
 -6.8736612e-002
 -9.2266772e-002
 -9.1700366e-002
 -9.1700366e-002
 -4.1340918e-002
 -3.3220351e-002
 -5.2055044e-002
 -4.6832893e-002
 -4.6832893e-002
 -2.9701598e-002
 -2.7648498e-002
 -3.9554480e-002
 -4.2399231e-002
 -4.2399231e-002
 -3.8248543e-002
 -3.7118783e-002
 -5.7907458e-002
 -6.4582134e-002
 -6.4582134e-002
 -4.6303035e-002
 -3.5143705e-002
 -5.2956188e-002
 -6.6638194e-002
 -6.6638194e-002
 -6.6263992e-002
 -6.8878873e-002
 -6.9478789e-002
 -8.6006454e-002
 -8.6006454e-002
 -8.8453976e-002
 -6.4985537e-002
 -6.7600796e-002
 -9.4094597e-002
 -9.4094597e-002
 -1.0841829e-001
 -1.2162582e-001
 -1.2476273e-001
 -1.3484161e-001
 -1.3484161e-001
 -1.5479306e-001
 -1.5565447e-001
 -1.8737708e-001
 -2.1485085e-001
 -2.1485085e-001
 -2.0723657e-001
 -2.1461653e-001
 -2.2690886e-001
 -2.1319993e-001
 -2.1319993e-001
 -1.9660856e-001
 -1.9508512e-001
 -1.9655560e-001
 -1.7808970e-001
 -1.7808970e-001
 -1.4881412e-001
 -1.3471173e-001
 -1.1773265e-001
 -9.3917365e-002
 -9.3917365e-002
 -6.9297967e-002
 -1.0021128e-002
  5.1758898e-002
  7.5187515e-002
  7.5187515e-002
  9.9417730e-002
  1.1249133e-001
  1.4138847e-001
  1.9494194e-001
  1.9494194e-001
  2.7792786e-001
  3.6122160e-001
  3.5817417e-001
  3.6709014e-001
  3.6709014e-001
  4.0778943e-001
  4.2921971e-001
  4.5444354e-001
  4.5554373e-001
  4.5554373e-001
  4.3769695e-001
  4.3292758e-001
  4.4112883e-001
  4.6617796e-001
  4.6617796e-001
  4.7805924e-001
  4.5397410e-001
  4.1811905e-001
  3.5664884e-001
  3.5664884e-001
  2.8869709e-001
  2.5913472e-001
  2.3378810e-001
  2.0266456e-001
  2.0266456e-001
  2.0166489e-001
  2.1759607e-001
  2.1645840e-001
  1.9540374e-001
  1.9540374e-001
  1.8248093e-001
  1.9057063e-001
  1.9460318e-001
  1.8266075e-001
  1.8266075e-001
  1.4391939e-001
  1.2142335e-001
  1.2898321e-001
  1.1157827e-001
  1.1157827e-001
  8.2359948e-002
  6.6323402e-002
  6.7345005e-002
  3.5490064e-002
  3.5490064e-002
 -8.0575861e-003
 -1.2409800e-002
 -2.5690264e-002
 -4.8821440e-002
 -4.8821440e-002
 -6.1803938e-002
 -8.8621983e-002
 -1.1422300e-001
 -1.3264064e-001
 -1.3264064e-001
 -1.6185929e-001
 -1.8685108e-001
 -2.1262924e-001
 -2.3918647e-001
 -2.3918647e-001
 -2.5755235e-001
 -2.8970310e-001
 -3.0963141e-001
 -3.1843244e-001
 -3.1843244e-001
 -3.2914358e-001
 -3.4374063e-001
 -3.6617494e-001
 -3.8841440e-001
 -3.8841440e-001
 -4.1344756e-001
 -4.2332442e-001
 -4.4007843e-001
 -4.6365275e-001
 -4.6365275e-001
 -4.7905226e-001
 -4.7240056e-001
 -4.7076755e-001
 -4.7909171e-001
 -4.7909171e-001
 -5.1222989e-001
 -5.4806817e-001
 -5.2583311e-001
 -5.0874213e-001
 -5.0874213e-001
 -4.9376602e-001
 -5.0080600e-001
 -5.0876782e-001
 -4.8079522e-001
 -4.8079522e-001
 -4.5901082e-001
 -4.5033606e-001
 -4.5068040e-001
 -4.3806016e-001
 -4.3806016e-001
 -4.1158584e-001
 -3.8033467e-001
 -3.5729349e-001
 -3.4538362e-001
 -3.4538362e-001
 -3.2360045e-001
 -2.8206637e-001
 -2.4783363e-001
 -2.4275353e-001
 -2.4275353e-001
 -2.5961657e-001
 -2.3749262e-001
 -1.9163972e-001
 -1.9097073e-001
 -1.9097073e-001
 -1.8332927e-001
 -1.6478896e-001
 -1.1850915e-001
 -9.2521564e-002
 -9.2521564e-002
 -1.2749320e-001
 -1.2632183e-001
 -9.9262019e-002
 -7.7399336e-002
 -7.7399336e-002
 -8.3597802e-002
 -8.8746573e-002
 -7.6919593e-002
 -6.8174113e-002
 -6.8174113e-002
 -6.2485229e-002
 -6.2815846e-002
 -6.5133119e-002
 -6.3445299e-002
 -6.3445299e-002
 -5.8781085e-002
 -5.4152675e-002
 -4.6572214e-002
 -4.6023126e-002
 -4.6023126e-002
 -3.5517573e-002
 -3.0075861e-002
 -2.9656771e-002
 -2.5256115e-002
 -2.5256115e-002
 -2.5869724e-002
 -2.5481157e-002
 -2.1110907e-002
 -2.6734323e-002
 -2.6734323e-002
 -2.4343241e-002
 -1.8982782e-002
 -1.7648727e-002
 -1.0349163e-002
 -1.0349163e-002
 -2.4022504e-002
 -2.1648384e-002
 -1.6304828e-002
 -2.2954847e-002
 -2.2954847e-002
 -2.2577987e-002
 -1.8219421e-002
 -1.3895461e-002
 -1.8569100e-002
 -1.8569100e-002
 -1.4240350e-002
 -1.0941994e-002
 -2.3604272e-002
 -2.6202770e-002
 -2.6202770e-002
 -1.0852447e-002
 -1.0565384e-002
 -9.2839773e-003
 -1.0004108e-002
 -1.0004108e-002
 -1.2709387e-002
 -4.5312770e-004
  7.4844002e-004
  1.9405984e-003
  1.9405984e-003
 -8.8274599e-003
 -1.3531321e-002
 -2.9150770e-002
 -5.5596035e-002
 -5.5596035e-002
 -2.4060358e-002
  1.3194172e-002
  9.3120755e-003
 -8.4807925e-003
 -8.4807925e-003
 -3.6086488e-002
 -6.6983065e-003
  2.1454384e-002
  5.7736197e-004
  5.7736197e-004
  2.1699421e-002
 -3.1630496e-003
  6.3618582e-005
  6.2520746e-003
  6.2520746e-003
  4.3934037e-004
 -7.3172323e-003
 -4.8870409e-002
  2.9426695e-002
  2.9426695e-002
  4.9320721e-002
  7.3048743e-003
  8.4566164e-003
  5.6155047e-003
  5.6155047e-003
 -1.1144758e-002
 -2.4779445e-002
 -1.9379191e-002
 -2.1989202e-002
 -2.1989202e-002
 -1.6708805e-003
 -4.4239363e-003
 -1.1137478e-002
  1.6065441e-002
  1.6065441e-002
  3.1095045e-002
  2.5087221e-002
  1.5144529e-002
  8.2707982e-003
  8.2707982e-003
  2.1371532e-002
  3.4364909e-002
  2.2353775e-002
  1.4424172e-002
  1.4424172e-002
  1.7514321e-002
  2.1574985e-002
  1.7634960e-002
  1.6714729e-002
  1.6714729e-002
  1.6797825e-002
  1.6880139e-002
  1.7957577e-002
  1.4046543e-002
  1.4046543e-002
  1.7138799e-002
  2.5185174e-002
  1.7230916e-002
  1.4321086e-002
  1.4321086e-002
  2.2389962e-002
  2.9396667e-002
  4.6304590e-002
  3.8175581e-002
  3.8175581e-002
  8.2023167e-003
  1.9306331e-002
  5.4221048e-002
  5.2000497e-002
  5.2000497e-002
  3.8841853e-002
  2.3798117e-002
 -2.0779291e-003
  1.1098330e-002
  1.1098330e-002
  3.4125963e-002
  4.2026058e-002
  4.1893355e-002
  3.4789433e-002
  3.4789433e-002
  4.7660923e-002
  5.2458773e-002
  4.7257017e-002
  6.3010598e-002
  6.3010598e-002
  9.2576331e-002
  8.3057395e-002
  6.4650762e-002
  5.1372361e-002
  5.1372361e-002
  2.9238054e-002
  6.6042438e-002
  5.8724320e-002
  6.0427577e-002
  6.0427577e-002
  8.1037426e-002
  4.9689430e-002
  5.5444863e-002
  6.4139454e-002
  6.4139454e-002
  5.2843089e-002
  7.1514772e-002
  8.3060422e-002
  5.7660795e-002
  5.7660795e-002
  6.4336150e-002
  7.7926429e-002
  8.5427887e-002
  9.6849084e-002
  9.6849084e-002
  9.3235412e-002
  9.7615693e-002
  9.9965378e-002
  1.0229279e-001
  1.0229279e-001
  1.3148743e-001
  1.4350887e-001
  1.1758314e-001
  1.0580834e-001
  1.0580834e-001
  1.2300770e-001
  1.0321412e-001
  9.0550452e-002
  1.0886052e-001
  1.0886052e-001
  1.2602155e-001
  1.2610788e-001
  1.1224681e-001
  1.0945043e-001
  1.0945043e-001
  1.1563655e-001
  1.3172742e-001
  1.2178897e-001
  1.3284181e-001
  1.3284181e-001
  1.4180816e-001
  1.3476211e-001
  1.4469962e-001
  1.4160439e-001
  1.4160439e-001
  1.5745197e-001
  1.5623442e-001
  1.3111996e-001
  1.2413276e-001
  1.2413276e-001
  1.2914940e-001
  1.4905929e-001
  1.4589564e-001
  1.3179803e-001
  1.3179803e-001
  1.3075801e-001
  1.3768932e-001
  1.3858390e-001
  1.3747468e-001
  1.3747468e-001
  1.3935759e-001
  1.4221627e-001
  1.4504675e-001
  1.4685324e-001
  1.4685324e-001
  1.7851705e-001
  1.7804698e-001
  1.4570575e-001
  1.3752560e-001
  1.3752560e-001
  1.5330926e-001
  1.7095039e-001
  1.5657247e-001
  1.4927799e-001
  1.4927799e-001
  1.5199699e-001
  1.5668026e-001
  1.6231567e-001
  1.4997307e-001
  1.4997307e-001
  1.4071381e-001
  1.3351709e-001
  1.3135397e-001
  1.2621615e-001
  1.2621615e-001
  1.3207075e-001
  1.3289324e-001
  1.3370423e-001
  1.6438090e-001
  1.6438090e-001
  1.4998525e-001
  1.5661590e-001
  1.6019900e-001
  1.0797646e-001
  1.0797646e-001
  1.0796387e-001
  1.0894327e-001
  1.1787783e-001
  1.1777185e-001
  1.1777185e-001
  9.2764769e-002
  8.7876673e-002
  7.9041540e-002
  9.7164946e-002
  9.7164946e-002
  1.0418152e-001
  1.0416546e-001
  1.1310869e-001
  1.1002368e-001
  1.1002368e-001
  1.0895153e-001
  1.0290446e-001
  1.0088650e-001
  8.7926186e-002
  8.7926186e-002
  9.0006918e-002
  1.0202612e-001
  9.7012737e-002
  8.8052920e-002
  8.8052920e-002
  8.5138267e-002
  7.9256312e-002
  6.7443794e-002
  6.2696337e-002
  6.2696337e-002
  5.5993200e-002
  7.5235895e-002
  7.0416457e-002
  4.9698998e-002
  4.9698998e-002
  5.6038046e-002
  5.5351449e-002
  4.4708954e-002
  4.3114481e-002
  4.3114481e-002
  4.5514586e-002
  4.3909296e-002
  4.8290445e-002
  4.7653997e-002
  4.7653997e-002
  5.1004125e-002
  4.8349080e-002
  4.6709371e-002
  3.5121806e-002
  3.5121806e-002
  3.1594368e-002
  3.1964512e-003
 -2.9949583e-002
 -1.8008617e-002
 -1.8008617e-002
  1.5744543e-002
  6.4159107e-002
  5.2420798e-002
  1.9862045e-002
  1.9862045e-002
  1.6449348e-002
  7.0878974e-003
 -2.4107819e-002
 -1.6208115e-002
 -1.6208115e-002
  1.6524457e-002
 -6.7824298e-003
 -1.7948377e-002
 -9.1050406e-003
 -9.1050406e-003
 -6.3098056e-003
  1.0404757e-002
  9.0553640e-003
 -7.2225420e-003
 -7.2225420e-003
  4.5174965e-003
  2.2180600e-003
 -4.0469544e-003
 -1.1257204e-002
 -1.1257204e-002
 -3.7330987e-002
 -3.4309823e-002
 -2.8325183e-002
 -4.1311375e-002
 -4.1311375e-002
 -4.3235751e-002
 -4.1160006e-002
 -4.9059564e-002
 -4.7930431e-002
 -4.7930431e-002
 -4.0834169e-002
 -3.9770643e-002
 -3.3735625e-002
 -3.1733092e-002
 -3.1733092e-002
 -3.0742432e-002
 -3.3743112e-002
 -3.3731074e-002
 -3.3718656e-002
 -3.3718656e-002
 -2.6734535e-002
 -3.3749921e-002
 -4.5686986e-002
 -4.2587013e-002
 -4.2587013e-002
 -4.9470638e-002
 -5.1317445e-002
 -4.5180839e-002
 -4.8056655e-002
 -4.8056655e-002
 -5.4891593e-002
 -4.8722687e-002
 -4.8578627e-002
 -6.4369195e-002
 -6.4369195e-002
 -6.2102853e-002
 -4.9894531e-002
 -4.2764474e-002
 -3.7683688e-002
 -3.7683688e-002
 -3.9615105e-002
 -3.8542291e-002
 -4.2457071e-002
 -4.4347207e-002
 -4.4347207e-002
 -5.0204609e-002
 -5.7008929e-002
 -4.4834119e-002
 -3.9729251e-002
 -3.9729251e-002
 -3.9644884e-002
 -3.0597317e-002
 -4.1541344e-002
 -5.9366397e-002
 -5.9366397e-002
 -8.7003330e-002
 -7.3579899e-002
 -2.8395383e-002
 -4.7317725e-002
 -4.7317725e-002
 -4.3178538e-002
 -1.1186986e-002
 -2.0289213e-002
 -4.6247250e-002
 -4.6247250e-002
 -3.9127227e-002
 -1.3142472e-002
 -4.9116290e-002
 -6.6868615e-002
 -6.6868615e-002
 -3.5674807e-002
 -2.3657535e-002
 -1.1738245e-002
  1.0793668e-003
  1.0793668e-003
 -2.8036333e-002
 -7.6831648e-002
 -6.5471743e-002
 -4.3248092e-002
 -4.3248092e-002
 -5.0086406e-002
 -4.0933179e-002
 -3.3845726e-002
 -4.2750046e-002
 -4.2750046e-002
 -4.2617498e-002
 -3.5513775e-002
 -3.2451049e-002
 -2.5429151e-002
 -2.5429151e-002
 -2.1452010e-002
 -2.7466193e-002
 -3.2434867e-002
 -3.5370508e-002
 -3.5370508e-002
 -3.5293733e-002
 -4.4180015e-002
 -4.4029507e-002
 -1.6989827e-002
 -1.6989827e-002
 -1.5068713e-002
 -3.2085443e-002
 -3.9003404e-002
 -2.5945890e-002
 -2.5945890e-002
 -2.9925090e-002
 -3.6858928e-002
 -3.8755783e-002
 -6.1550266e-002
 -6.1550266e-002
 -3.8345205e-002
 -9.3536061e-003
 -2.7406647e-002
 -4.7303428e-002
 -4.7303428e-002
 -4.0146996e-002
 -1.4125998e-002
  7.2734895e-004
  1.5161406e-003
  1.5161406e-003
 -4.6733357e-003
 -1.3800205e-002
 -8.9097808e-003
 -1.2026712e-002
 -1.2026712e-002
 -3.5036272e-002
 -4.7897936e-002
 -3.3763875e-002
 -2.9703709e-002
 -2.9703709e-002
 -4.1610631e-002
 -4.9435622e-002
 -5.4207693e-002
 -4.3004891e-002
 -4.3004891e-002
 -3.4880367e-002
 -6.9034373e-003
  1.8852770e-002
 -1.1373255e-002
 -1.1373255e-002
 -6.4955626e-003
  3.3386179e-004
 -1.2811050e-002
 -3.2819803e-002
 -3.2819803e-002
 -3.7725725e-002
 -1.9684896e-002
 -3.0672521e-002
 -2.0655713e-002
 -2.0655713e-002
 -2.5659068e-002
 -4.9543230e-002
 -4.4349651e-002
 -2.0275272e-002
 -2.0275272e-002
 -1.4323701e-002
 -1.8379739e-002
 -2.9373719e-002
 -1.5379627e-002
 -1.5379627e-002
  2.4837933e-003
 -2.3619070e-002
 -1.0667874e-002
 -5.7898241e-003
 -5.7898241e-003
 -1.1906790e-002
 -8.0146957e-003
 -1.2121770e-002
 -9.2239188e-003
 -9.2239188e-003
 -1.7304777e-002
 -6.3972014e-003
 -2.1472470e-002
 -4.0407764e-002
 -4.0407764e-002
 -3.2297873e-002
 -2.4253580e-002
 -2.8225463e-002
 -3.1168397e-002
 -3.1168397e-002
  1.0729071e-002
 -1.4955384e-003
 -4.2501733e-002
 -3.5368235e-002
 -3.5368235e-002
 -2.5304530e-002
 -1.2334910e-002
 -8.4344102e-003
 -1.3529015e-002
 -1.3529015e-002
 -1.4598262e-002
 -1.1675025e-002
 -9.7715622e-003
 -1.4855021e-002
 -1.4855021e-002
 -1.1929551e-002
 -1.5999284e-002
 -3.2982314e-002
 -2.0944537e-002
 -2.0944537e-002
 -1.6972061e-002
 -2.4982692e-002
 -3.4919151e-002
 -5.3736684e-002
 -5.3736684e-002
 -2.9575053e-002
 -1.8557061e-002
 -3.0534656e-002
 -3.3450506e-002
 -3.3450506e-002
 -5.1280288e-002
 -4.8048934e-002
 -4.3846813e-002
 -4.0673808e-002
 -4.0673808e-002
 -7.6485929e-003
 -2.7787543e-003
 -1.1891612e-002
  5.9595131e-003
  5.9595131e-003
  3.7460947e-003
 -4.2269439e-002
 -4.2096092e-002
 -2.1009090e-002
 -2.1009090e-002
 -2.3995789e-002
 -1.7994446e-002
 -2.5984529e-002
 -1.9966074e-002
 -1.9966074e-002
 -1.6984174e-002
 -1.6018200e-002
 -2.6014833e-002
 -3.4933265e-002
 -3.4933265e-002
 -2.7843453e-002
 -2.8778201e-002
 -1.7753795e-002
 -1.3790550e-002
 -1.3790550e-002
 -4.8800216e-003
  7.9411398e-003
  5.7183605e-003
  1.5214586e-003
  1.5214586e-003
 -1.6455743e-003
 -7.7746671e-003
 -1.9829108e-002
 -2.8796913e-002
 -2.8796913e-002
 -8.8095191e-003
 -4.9199941e-003
 -1.6996855e-002
 -1.1048433e-002
 -1.1048433e-002
 -1.3115793e-002
 -1.4170197e-002
 -1.9199408e-002
 -1.9207625e-002
 -1.9207625e-002
 -1.0252284e-002
 -8.3414262e-003
  4.5087451e-003
  6.2984796e-003
  6.2984796e-003
  6.0812778e-003
  1.8812110e-002
  2.5462518e-002
  4.8987774e-002
  4.8987774e-002
  4.9412971e-002
  3.0252618e-003
  1.2787017e-002
  1.6492812e-002
  1.6492812e-002
  7.2207068e-003
  2.9892783e-002
  3.5447829e-002
  4.3943672e-002
  4.3943672e-002
  4.1413331e-002
  4.4877396e-002
  3.5364569e-002
  1.9952588e-002
  1.9952588e-002
  2.1595982e-002
  3.1192121e-002
  3.4733008e-002
  3.8243451e-002
  3.8243451e-002
  4.6703095e-002
  8.2841965e-003
 -6.9154290e-003
 -9.0441444e-003
 -9.0441444e-003
 -2.2110432e-002
  6.7584681e-003
  7.5054743e-003
  7.2498795e-003
  7.2498795e-003
  1.5958926e-002
  4.6778190e-003
  4.5977200e-004
  1.3206217e-002
  1.3206217e-002
  2.8835376e-002
  3.1388695e-002
  2.3960700e-002
  2.9539031e-002
  2.9539031e-002
  5.8972100e-002
  3.5379300e-002
  2.0188053e-003
  6.7749711e-003
  6.7749711e-003
  2.9417930e-002
  3.7931761e-002
  1.7493139e-002
  3.1960842e-003
  3.1960842e-003
 -1.9947691e-002
 -1.9000260e-002
 -1.0093074e-002
 -2.7152238e-002
 -2.7152238e-002
 -3.7100058e-002
 -5.5928799e-002
 -7.8585698e-002
 -7.5161581e-002
 -7.5161581e-002
 -6.3796055e-002
 -2.4636350e-002
 -8.7021040e-003
 -3.5722040e-002
 -3.5722040e-002
 -4.6585747e-002
 -5.1383982e-002
 -4.2198943e-002
 -3.4083813e-002
 -3.4083813e-002
 -4.0972766e-002
 -3.4857594e-002
 -4.1738316e-002
 -6.3500253e-002
 -6.3500253e-002
 -5.0225820e-002
 -3.6062632e-002
 -4.4920119e-002
 -5.1712175e-002
 -5.1712175e-002
 -5.8447261e-002
 -5.6162480e-002
 -5.5886590e-002
 -5.4615460e-002
 -5.4615460e-002
 -5.5344976e-002
 -5.6066945e-002
 -6.6740438e-002
 -7.1349270e-002
 -7.1349270e-002
 -6.8946962e-002
 -6.0586812e-002
 -2.5403829e-002
 -1.9389096e-002
 -1.9389096e-002
 -4.2304340e-002
 -7.4990093e-002
 -7.2549705e-002
 -4.7221281e-002
 -4.7221281e-002
 -2.1102674e-002
 -9.1397750e-003
 -2.9143517e-002
 -2.7073075e-002
 -2.7073075e-002
 -4.8920560e-002
 -5.2661733e-002
 -1.9522325e-002
 -3.5452694e-002
 -3.5452694e-002
 -4.9260030e-002
 -2.9092304e-002
 -6.4859298e-002
 -7.2446585e-002
 -7.2446585e-002
 -4.1129354e-002
 -2.7993240e-002
 -1.5959672e-002
 -4.0872571e-002
 -4.0872571e-002
 -4.9646138e-002
 -4.2412024e-002
 -3.1252188e-002
 -2.5162233e-002
 -2.5162233e-002
 -2.5096812e-002
 -2.5031250e-002
 -2.3969643e-002
 -2.7895590e-002
 -2.7895590e-002
 -3.4776374e-002
 -5.1558929e-002
 -6.9198600e-002
 -4.3868019e-002
 -4.3868019e-002
 -4.1648992e-002
 -3.4467331e-002
 -2.8339269e-002
 -4.9149893e-002
 -4.9149893e-002
 -6.2817529e-002
 -6.4420596e-002
 -5.9037190e-002
 -6.9630391e-002
 -6.9630391e-002
 -9.0093797e-002
 -1.1138288e-001
 -1.2054343e-001
 -1.4257187e-001
 -1.4257187e-001
 -1.5445646e-001
 -1.6125926e-001
 -1.8094782e-001
 -1.8154720e-001
 -1.8154720e-001
 -1.8611923e-001
 -2.0060668e-001
 -2.0700171e-001
 -2.1134568e-001
 -2.1134568e-001
 -2.1963062e-001
 -2.2883629e-001
 -2.2401628e-001
 -2.0229771e-001
 -2.0229771e-001
 -1.9170474e-001
 -1.6426145e-001
 -8.9233491e-002
 -6.4610981e-002
 -6.4610981e-002
 -7.0064560e-002
 -1.6712711e-002
  1.4293795e-002
  3.0107937e-002
  3.0107937e-002
  7.4673155e-002
  1.1787578e-001
  1.5574187e-001
  2.0126053e-001
  2.0126053e-001
  2.3644138e-001
  2.7331860e-001
  3.4872548e-001
  3.8565989e-001
  3.8565989e-001
  3.8543099e-001
  4.0809682e-001
  4.2458821e-001
  4.3395915e-001
  4.3395915e-001
  4.2929616e-001
  4.3063219e-001
  4.4289764e-001
  4.6102317e-001
  4.6102317e-001
  4.7798891e-001
  4.6193481e-001
  4.0715591e-001
  3.3886822e-001
  3.3886822e-001
  3.0498782e-001
  2.7734921e-001
  2.4693913e-001
  2.2473617e-001
  2.2473617e-001
  2.0569446e-001
  2.1468634e-001
  2.1861749e-001
  2.1752913e-001
  2.1752913e-001
  2.2440907e-001
  2.0533118e-001
  1.8640181e-001
  1.6861627e-001
  1.6861627e-001
  1.5893711e-001
  1.4833524e-001
  1.2885131e-001
  1.2147255e-001
  1.2147255e-001
  8.6264099e-002
  5.5323565e-002
  5.7498297e-002
  5.8656747e-002
  5.8656747e-002
  3.4905492e-002
 -1.8530540e-002
 -4.9619865e-002
 -8.4437638e-002
 -8.4437638e-002
 -9.8054609e-002
 -1.2151666e-001
 -1.6071793e-001
 -1.5079467e-001
 -1.5079467e-001
 -1.7082523e-001
 -2.0363366e-001
 -2.3218401e-001
 -2.4455928e-001
 -2.4455928e-001
 -2.6080935e-001
 -2.9185692e-001
 -3.0969464e-001
 -3.2737663e-001
 -3.2737663e-001
 -3.4888717e-001
 -3.7519010e-001
 -3.8732317e-001
 -4.1428300e-001
 -4.1428300e-001
 -4.0416043e-001
 -4.0705413e-001
 -4.3680021e-001
 -4.4537472e-001
 -4.4537472e-001
 -4.6481935e-001
 -4.4724115e-001
 -4.5867303e-001
 -4.9788146e-001
 -4.9788146e-001
 -4.8596162e-001
 -4.8408200e-001
 -4.9614415e-001
 -5.0709510e-001
 -5.0709510e-001
 -5.0798037e-001
 -4.9290677e-001
 -4.9487007e-001
 -4.8883328e-001
 -4.8883328e-001
 -4.8581691e-001
 -4.7185366e-001
 -4.5002119e-001
 -4.3532309e-001
 -4.3532309e-001
 -4.3566869e-001
 -4.3998004e-001
 -3.7353173e-001
 -3.4047848e-001
 -3.4047848e-001
 -3.5150327e-001
 -3.3752797e-001
 -3.1568779e-001
 -2.8903543e-001
 -2.8903543e-001
 -2.7055786e-001
 -2.6018885e-001
 -2.4093206e-001
 -2.0887716e-001
 -2.0887716e-001
 -1.8006431e-001
 -1.3952939e-001
 -1.0629176e-001
 -1.1614540e-001
 -1.1614540e-001
 -1.3188922e-001
 -1.1363837e-001
 -1.1246249e-001
 -9.4361268e-002
 -9.4361268e-002
 -7.3416337e-002
 -8.3512368e-002
 -6.6632814e-002
 -7.0802160e-002
 -7.0802160e-002
 -7.0950574e-002
 -5.0180556e-002
 -3.0573703e-002
 -2.5067907e-002
 -2.5067907e-002
 -3.1556255e-002
 -2.4046968e-002
 -3.2531846e-002
 -2.0031400e-002
 -2.0031400e-002
 -1.4602920e-002
 -1.5192865e-002
 -2.3743814e-002
 -2.4255930e-002
 -2.4255930e-002
 -1.8563606e-003
 -5.5293998e-004
 -4.2387736e-003
  1.0697070e-003
  1.0697070e-003
  2.0278308e-002
  1.5428399e-002
  5.6390116e-003
  1.2860740e-002
  1.2860740e-002
  2.0976319e-003
 -1.6053164e-003
  1.6942979e-003
  2.9759803e-003
  2.9759803e-003
  2.6437974e-004
 -4.4159562e-003
 -7.0651581e-003
 -5.7079341e-003
 -5.7079341e-003
 -9.3402170e-003
 -7.9620529e-003
  3.3650684e-003
  6.6331606e-003
  6.6331606e-003
  3.8998113e-003
 -1.7981095e-003
  6.4941915e-003
  1.7726559e-003
  1.7726559e-003
 -1.6852063e-002
 -2.5363979e-002
 -1.9356015e-003
  1.3334999e-002
  1.3334999e-002
 -3.9996985e-004
 -1.2029889e-002
 -9.6207318e-003
 -1.4201335e-002
 -1.4201335e-002
 -1.1771745e-002
  3.4459083e-002
  1.1594370e-002
 -5.1074302e-003
 -5.1074302e-003
  1.1193258e-002
  9.4349787e-003
  1.9642548e-002
  7.8570674e-003
  7.8570674e-003
  3.7996581e-002
  5.5938506e-002
  1.4974487e-002
  2.2311243e-003
  2.2311243e-003
  1.9469927e-002
  2.3621329e-002
  1.9771709e-002
  1.1970225e-002
  1.1970225e-002
 -2.7382618e-003
  3.3465628e-002
  4.9455267e-002
 -1.4120913e-003
 -1.4120913e-003
 -2.0989568e-002
 -7.5405144e-003
 -3.1633548e-003
  2.1749732e-003
  2.1749732e-003
  9.4623371e-003
  1.4698943e-002
  2.2880901e-002
  2.4024819e-002
  2.4024819e-002
  2.0180005e-002
  2.6325932e-002
  2.4454443e-002
  2.4590185e-002
  2.4590185e-002
  3.2692166e-002
  2.4793293e-002
  2.4926339e-002
  2.2070689e-002
  2.2070689e-002
  6.2918379e-003
  1.2552601e-002
  2.0754505e-002
  1.5942846e-002
  1.5942846e-002
  1.3162740e-002
  9.4099567e-003
  1.7639325e-002
  3.2773086e-002
  3.2773086e-002
  2.6868978e-002
  3.7943541e-002
  7.0837105e-002
  5.2669206e-002
  5.2669206e-002
  3.3653102e-002
  4.5665283e-002
  3.0689248e-002
  3.1770006e-002
  3.1770006e-002
  5.6743474e-002
  5.3626475e-002
  3.7587328e-002
  3.2633908e-002
  3.2633908e-002
  3.7679840e-002
  3.4716933e-002
  3.2773898e-002
  2.6862941e-002
  2.6862941e-002
  2.9963448e-002
  3.8018024e-002
  3.6047338e-002
  4.3055588e-002
  4.3055588e-002
  5.9965032e-002
  6.3788363e-002
  6.2599669e-002
  5.7435865e-002
  5.7435865e-002
  4.9325525e-002
  6.4186505e-002
  7.2949286e-002
  8.4626561e-002
  8.4626561e-002
  8.4255548e-002
  7.7910180e-002
  9.0537104e-002
  8.2144627e-002
  8.2144627e-002
  8.2781987e-002
  8.0424486e-002
  7.8084395e-002
  8.4724776e-002
  8.4724776e-002
  1.0226379e-001
  9.5755100e-002
  7.1370954e-002
  8.7020725e-002
  8.7020725e-002
  9.4573195e-002
  1.0206153e-001
  1.0649830e-001
  1.0492057e-001
  1.0492057e-001
  1.1629974e-001
  1.2359912e-001
  1.2486000e-001
  1.2909484e-001
  1.2909484e-001
  1.3528327e-001
  1.3842957e-001
  1.2959538e-001
  1.0887892e-001
  1.0887892e-001
  1.1521828e-001
  1.3245757e-001
  1.3461359e-001
  1.2878090e-001
  1.2878090e-001
  1.2697586e-001
  1.2518196e-001
  1.1543193e-001
  1.3165188e-001
  1.3165188e-001
  1.7163710e-001
  1.2863025e-001
  8.0991786e-002
  9.1503087e-002
  9.1503087e-002
  1.1088910e-001
  1.6497010e-001
  1.6382927e-001
  1.6966415e-001
  1.6966415e-001
  1.7644208e-001
  1.5129028e-001
  1.5123714e-001
  1.5416758e-001
  1.5416758e-001
  1.4711034e-001
  1.4209816e-001
  1.6600385e-001
  1.6182368e-001
  1.6182368e-001
  1.5767270e-001
  1.6749345e-001
  1.6029835e-001
  1.5514890e-001
  1.5514890e-001
  1.5899988e-001
  1.6978574e-001
  1.7251086e-001
  1.7421236e-001
  1.7421236e-001
  1.6493951e-001
  1.6868401e-001
  1.8235159e-001
  1.8893029e-001
  1.8893029e-001
  1.8947372e-001
  1.5913360e-001
  1.5393406e-001
  1.5972704e-001
  1.5972704e-001
  1.4754127e-001
  1.3843810e-001
  1.4733120e-001
  1.5116732e-001
  1.5116732e-001
  1.4899177e-001
  1.5778412e-001
  1.4757729e-001
  1.4740814e-001
  1.4740814e-001
  1.5221508e-001
  1.5299413e-001
  1.4380275e-001
  1.5061625e-001
  1.5061625e-001
  1.5736909e-001
  1.4912295e-001
  1.4990243e-001
  1.4768285e-001
  1.4768285e-001
  1.4946012e-001
  1.3528342e-001
  1.2918532e-001
  1.3707541e-001
  1.3707541e-001
  1.3593326e-001
  1.2384092e-001
  1.1881460e-001
  9.6894985e-002
  9.6894985e-002
  1.0901201e-001
  1.2500988e-001
  1.0103655e-001
  1.0016154e-001
  1.0016154e-001
  8.9331210e-002
  8.4561764e-002
  9.0783322e-002
  1.0989762e-001
  1.0989762e-001
  1.0694196e-001
  1.1097808e-001
  1.1497736e-001
  8.6075119e-002
  8.6075119e-002
  9.6246390e-002
  1.1031474e-001
  9.4387091e-002
  6.7631387e-002
  6.7631387e-002
  6.1010062e-002
  6.6391487e-002
  6.1767463e-002
  8.0084765e-002
  8.0084765e-002
  8.6298579e-002
  5.5610051e-002
  3.0149867e-002
  1.9835169e-002
  1.9835169e-002
  5.0435973e-002
  6.0866603e-002
  6.3242458e-002
  6.7588343e-002
  6.7588343e-002
  4.6998601e-002
  5.3464778e-002
  3.9957975e-002
  2.9547722e-002
  2.9547722e-002
  4.3123026e-002
  4.2642987e-002
  3.4197952e-002
  2.3828744e-002
  2.3828744e-002
  1.4539151e-002
  1.2296078e-002
  1.9033796e-002
 -6.1534005e-003
 -6.1534005e-003
 -1.2212566e-002
 -8.2630171e-003
 -1.5300693e-002
  1.3571947e-002
  1.3571947e-002
  2.5277443e-002
  3.9873827e-002
  3.4431187e-002
  1.6084863e-002
  1.6084863e-002
  2.8672319e-003
 -1.2234520e-002
 -6.2986969e-003
 -4.1147366e-004
 -4.1147366e-004
  1.5386386e-002
  1.8107539e-002
 -2.1002328e-003
 -1.2183968e-002
 -1.2183968e-002
 -3.1148271e-002
 -2.8046883e-002
 -9.0357311e-003
 -4.1966981e-002
 -4.1966981e-002
 -2.7820389e-002
  1.5385407e-004
 -3.5838733e-002
 -3.4687687e-002
 -3.4687687e-002
 -2.5577930e-002
 -8.5748342e-003
  1.2272882e-002
 -5.8907742e-003
 -5.8907742e-003
 -1.6934675e-002
 -1.8924850e-002
 -2.5877906e-002
 -2.5802188e-002
 -2.5802188e-002
 -2.2738777e-002
 -2.5675334e-002
 -1.5640534e-002
 -7.6793200e-003
 -7.6793200e-003
 -2.1693079e-002
 -4.4554928e-002
 -5.8265493e-002
 -5.9911415e-002
 -5.9911415e-002
 -5.2578985e-002
 -4.3313176e-002
 -4.2089138e-002
 -4.6849355e-002
 -4.6849355e-002
 -4.1610278e-002
 -3.2429254e-002
 -2.6310144e-002
 -3.0199441e-002
 -3.0199441e-002
 -2.8080729e-002
 -1.7015486e-002
 -1.9983010e-002
 -2.7905340e-002
 -2.7905340e-002
 -2.7794950e-002
 -2.9676552e-002
 -2.6562470e-002
 -2.7456783e-002
 -2.7456783e-002
 -3.1330784e-002
 -3.6168171e-002
 -3.8973192e-002
 -3.8766463e-002
 -3.8766463e-002
 -3.5572612e-002
 -3.6387490e-002
 -2.7235641e-002
 -2.2141509e-002
 -2.2141509e-002
 -5.9912331e-002
 -3.0646975e-002
  3.3594790e-003
 -1.7687096e-002
 -1.7687096e-002
 -1.9639017e-002
 -1.4603175e-002
 -1.4587713e-002
 -2.2539297e-002
 -2.2539297e-002
 -2.5399860e-003
 -8.5977733e-003
 -1.6597729e-002
 -1.4572859e-002
 -1.4572859e-002
 -1.7543749e-002
  1.3370793e-002
  5.1917172e-003
 -4.6740600e-002
 -4.6740600e-002
 -6.8369824e-002
 -4.3012610e-002
 -2.6824566e-002
 -2.2718977e-002
 -2.2718977e-002
 -1.5658641e-002
 -2.4590121e-002
 -3.3447910e-002
 -2.9285564e-002
 -2.9285564e-002
 -2.0176900e-002
 -1.1831418e-003
  1.7207578e-003
 -5.3583291e-003
 -5.3583291e-003
 -3.4163758e-003
 -2.4862384e-003
 -3.5555794e-003
 -7.6039193e-003
 -7.6039193e-003
  4.3154044e-003
 -1.6727839e-002
 -3.9590432e-002
 -3.2387813e-002
 -3.2387813e-002
 -5.3250640e-003
  1.6536943e-002
 -1.6166358e-003
 -1.3646463e-002
 -1.3646463e-002
 -1.0639067e-002
  2.3029919e-003
 -5.7749586e-003
  1.8082104e-002
  1.8082104e-002
  3.2780233e-002
  2.1463451e-002
  2.0197361e-002
  4.9981421e-003
  4.9981421e-003
  3.2746730e-002
  3.5369606e-002
 -4.8541639e-003
 -1.3876053e-002
 -1.3876053e-002
 -1.5852545e-002
 -8.8493690e-003
 -3.8951143e-003
 -7.9445217e-003
 -7.9445217e-003
 -8.9729985e-003
 -1.8956053e-002
 -1.7902063e-002
 -9.8849158e-003
 -9.8849158e-003
 -8.9044595e-003
 -3.9482553e-003
  4.9510260e-003
  9.7936179e-003
  9.7936179e-003
  8.6207165e-003
  1.1440579e-002
  7.2655237e-003
  1.3649482e-004
  1.3649482e-004
 -9.5898471e-004
  4.9256965e-003
  5.7824277e-003
  3.6440943e-003
  3.6440943e-003
  2.5188695e-003
 -1.3535952e-002
 -2.1491984e-002
 -3.7349633e-002
 -3.7349633e-002
 -3.0170745e-002
 -3.1316139e-003
  8.7478526e-003
  8.5789083e-003
  8.5789083e-003
 -1.6486685e-002
 -5.1489196e-004
  1.5326188e-002
  7.1354015e-003
  7.1354015e-003
  2.3908784e-002
  2.1621905e-002
  6.4060958e-003
 -6.6938758e-003
 -6.6938758e-003
 -1.4707157e-002
  1.2471039e-003
 -4.8391517e-003
 -1.4859255e-002
 -1.4859255e-002
 -1.0854439e-002
 -1.1861672e-002
 -1.9831752e-002
 -1.9768925e-002
 -1.9768925e-002
 -7.7552545e-003
 -1.8745479e-002
 -1.4706813e-002
 -4.7253966e-003
 -4.7253966e-003
 -1.1755937e-002
 -4.7860966e-003
  3.1226793e-003
  1.2958352e-002
  1.2958352e-002
  1.8729415e-002
  2.4452519e-002
  1.1205692e-002
  3.0461593e-003
  3.0461593e-003
  2.9203130e-003
 -6.1678880e-003
 -6.2185975e-003
 -8.2606429e-003
 -8.2606429e-003
  6.6907376e-004
 -2.4252352e-003
 -4.4984120e-003
 -9.5423503e-003
 -9.5423503e-003
 -9.5653624e-003
 -6.6003044e-003
 -9.6348385e-003
 -4.6771589e-003
 -4.6771589e-003
  4.2236109e-003
  1.2055416e-002
  2.8922718e-003
  1.7710261e-003
  1.7710261e-003
  3.6464483e-003
  1.4469398e-002
  2.8190934e-002
  2.8852438e-002
  2.8852438e-002
  3.9466447e-002
  1.0156045e-002
 -5.9684759e-003
 -1.0471494e-003
 -1.0471494e-003
 -3.0026912e-002
 -2.0924553e-002
 -1.1896071e-002
 -8.9165832e-003
 -8.9165832e-003
 -1.0940832e-002
 -1.6931934e-002
  7.9993730e-003
  4.8411200e-003
  4.8411200e-003
 -1.0242475e-002
 -3.2926795e-003
  6.5879621e-003
  6.4284079e-003
  6.4284079e-003
  4.2779787e-003
  2.1448305e-003
 -1.9629143e-003
  9.3415934e-004
  9.3415934e-004
 -8.1434864e-003
 -1.3163185e-002
  1.0739650e-002
  1.1540757e-002
  1.1540757e-002
 -1.6078821e-003
  5.2689487e-003
  6.1137982e-003
 -1.9950165e-005
 -1.9950165e-005
  2.8594240e-003
  1.1690423e-002
  1.2481439e-002
  5.3101557e-002
  5.3101557e-002
  5.8530996e-002
  2.8061377e-002
  5.4606269e-002
  6.6989474e-002
  6.6989474e-002
  8.9228044e-002
  9.2359444e-002
  5.7617605e-002
  6.3989725e-002
  6.3989725e-002
  7.0307393e-002
  5.9640474e-002
  7.7939753e-002
  8.3139834e-002
  8.3139834e-002
  6.1404979e-002
  5.3788178e-002
  6.1170159e-002
  7.1477198e-002
  7.1477198e-002
  6.5762859e-002
  5.6109159e-002
  5.7487180e-002
  6.1839449e-002
  6.1839449e-002
  4.9223423e-002
  5.2643073e-002
  5.9020426e-002
  5.4388431e-002
  5.4388431e-002
  4.5808574e-002
  3.7297030e-002
  4.2796174e-002
  3.8289582e-002
  3.8289582e-002
  4.6764992e-002
  4.1226575e-002
  4.2703067e-002
  5.5120677e-002
  5.5120677e-002
  4.8512420e-002
  5.1915272e-002
  3.2382443e-002
  5.1848134e-002
  5.1848134e-002
  7.7128020e-002
  3.5472741e-002
  7.1032338e-003
  4.3698821e-002
  4.3698821e-002
  6.4058931e-002
  1.5532715e-002
  1.8193445e-002
  3.9753617e-002
  3.9753617e-002
  2.5283282e-002
  2.0889073e-002
  1.9517427e-002
  1.1184639e-002
  1.1184639e-002
 -6.0439062e-003
 -2.0144058e-002
 -2.5165496e-002
 -7.2396247e-003
 -7.2396247e-003
  8.5477504e-003
 -1.6626662e-002
 -4.2590975e-002
 -4.5436166e-002
 -4.5436166e-002
 -4.0289710e-002
 -2.9208922e-002
 -2.5189438e-002
 -2.6181851e-002
 -2.6181851e-002
 -1.8202499e-002
 -1.6263554e-002
 -2.7287022e-002
 -2.9256672e-002
 -2.9256672e-002
 -2.6230072e-002
 -3.4182630e-002
 -4.4061181e-002
 -4.1906991e-002
 -4.1906991e-002
 -4.3752967e-002
 -5.3549953e-002
 -6.4261286e-002
 -4.6997918e-002
 -4.6997918e-002
 -2.1907214e-002
 -2.7894253e-002
 -3.7815347e-002
 -4.7654383e-002
 -4.7654383e-002
 -5.7411697e-002
 -5.7128590e-002
 -4.5891251e-002
 -3.8728168e-002
 -3.8728168e-002
 -4.4569403e-002
 -5.3349397e-002
 -4.2138042e-002
 -3.3009036e-002
 -3.3009036e-002
 -4.2876021e-002
 -4.8677571e-002
 -5.4430341e-002
 -2.3286094e-002
 -2.3286094e-002
 -2.3268988e-002
 -5.6116341e-002
 -5.3836903e-002
 -5.4562274e-002
 -5.4562274e-002
 -3.8349787e-002
 -4.5174611e-002
 -6.0905513e-002
 -7.0530591e-002
 -7.0530591e-002
 -6.8124015e-002
 -4.2829288e-002
 -3.5666436e-002
 -2.2585763e-002
 -2.2585763e-002
 -4.6459950e-002
 -6.8145813e-002
 -7.1726052e-002
 -5.8344473e-002
 -5.8344473e-002
 -1.0213928e-002
  2.6666100e-003
 -8.4601548e-003
 -3.9413955e-002
 -3.9413955e-002
 -4.9199597e-002
 -4.5957044e-002
 -5.1702799e-002
 -5.8395949e-002
 -5.8395949e-002
 -5.2085868e-002
 -4.0846304e-002
 -4.4636008e-002
 -3.9430284e-002
 -3.9430284e-002
 -3.9245499e-002
 -6.3958683e-002
 -7.1537484e-002
 -6.5109442e-002
 -6.5109442e-002
 -9.2592661e-002
 -8.2999798e-002
 -9.0413096e-002
 -9.9754703e-002
 -9.9754703e-002
 -1.1399624e-001
 -1.4106440e-001
 -1.5097628e-001
 -1.9067928e-001
 -1.9067928e-001
 -1.8523569e-001
 -1.8182229e-001
 -2.0930377e-001
 -2.2261094e-001
 -2.2261094e-001
 -2.1986741e-001
 -2.1215943e-001
 -2.0948687e-001
 -1.9288645e-001
 -1.9288645e-001
 -1.6546030e-001
 -1.5219543e-001
 -1.4202154e-001
 -1.1997515e-001
 -1.1997515e-001
 -8.9141757e-002
 -5.4573747e-002
 -1.7298712e-002
  1.0709124e-002
  1.0709124e-002
  5.3426276e-002
  1.1172695e-001
  1.3170298e-001
  1.5350317e-001
  1.5350317e-001
  2.0001764e-001
  2.5809601e-001
  3.0772370e-001
  3.4398859e-001
  3.4398859e-001
  3.7894954e-001
  3.9269792e-001
  3.9735752e-001
  4.0993283e-001
  4.0993283e-001
  4.1542010e-001
  4.1985251e-001
  4.2622620e-001
  4.3054144e-001
  4.3054144e-001
  4.3879029e-001
  4.4396897e-001
  4.3016790e-001
  3.9654678e-001
  3.9654678e-001
  3.5322779e-001
  3.0327935e-001
  2.7165490e-001
  2.4725073e-001
  2.4725073e-001
  2.2104546e-001
  2.1894819e-001
  2.0789703e-001
  1.9593278e-001
  1.9593278e-001
  2.0298136e-001
  1.9900996e-001
  1.8112108e-001
  1.6934718e-001
  1.6934718e-001
  1.5666729e-001
  1.4408516e-001
  1.4653895e-001
  1.3502442e-001
  1.3502442e-001
  1.1662747e-001
  8.9413176e-002
  6.3413565e-002
  5.1566321e-002
  5.1566321e-002
  3.0850343e-002
  2.8228232e-002
  3.3593104e-002
 -1.1878845e-002
 -1.1878845e-002
 -5.7975272e-002
 -5.6886145e-002
 -7.5722825e-002
 -1.1432176e-001
 -1.1432176e-001
 -1.4662659e-001
 -1.7169178e-001
 -1.9156745e-001
 -2.1326670e-001
 -2.1326670e-001
 -2.2781073e-001
 -2.4920019e-001
 -2.7040704e-001
 -2.9143206e-001
 -2.9143206e-001
 -2.9634154e-001
 -3.0916874e-001
 -3.2686075e-001
 -3.5136900e-001
 -3.5136900e-001
 -3.5773932e-001
 -3.6404601e-001
 -4.0315419e-001
 -3.8516300e-001
 -3.8516300e-001
 -4.0216298e-001
 -4.2598215e-001
 -4.1573188e-001
 -4.3941246e-001
 -4.3941246e-001
 -4.6388083e-001
 -4.8713790e-001
 -4.7931563e-001
 -4.5759870e-001
 -4.5759870e-001
 -4.4998672e-001
 -4.5736049e-001
 -4.6266683e-001
 -4.6293473e-001
 -4.6293473e-001
 -4.6418075e-001
 -4.5544188e-001
 -4.4576314e-001
 -4.4013202e-001
 -4.4013202e-001
 -4.3054835e-001
 -4.1206522e-001
 -3.8077236e-001
 -3.3876731e-001
 -3.3876731e-001
 -3.1601615e-001
 -3.1435402e-001
 -3.0771502e-001
 -3.0510318e-001
 -3.0510318e-001
 -2.8457575e-001
 -2.5026348e-001
 -2.3414912e-001
 -2.1317864e-001
 -2.1317864e-001
 -1.9137602e-001
 -1.8567915e-001
 -1.7105894e-001
 -1.6153146e-001
 -1.6153146e-001
 -1.2518647e-001
 -9.3117451e-002
 -1.0911026e-001
 -9.6086838e-002
 -9.6086838e-002
 -7.8186519e-002
 -6.6404714e-002
 -5.2724558e-002
 -3.8157930e-002
 -3.8157930e-002
 -5.3585576e-002
 -5.9921502e-002
 -1.3420058e-002
 -2.3068294e-002
 -2.3068294e-002
 -7.4464164e-002
 -7.4645572e-002
 -4.4945202e-002
 -4.1378961e-002
 -4.1378961e-002
 -4.3815221e-002
 -2.1331807e-002
 -1.9944778e-002
 -1.0600491e-002
 -1.0600491e-002
  1.3607011e-002
 -8.1947276e-003
 -2.5833628e-002
 -1.3449633e-002
 -1.3449633e-002
  4.8096944e-003
 -2.9732122e-003
 -2.2642523e-002
 -1.3268343e-002
 -1.3268343e-002
 -5.9614520e-003
  2.9071096e-004
 -4.7886159e-004
 -1.2414087e-003
 -1.2414087e-003
 -1.1955998e-002
 -2.0590059e-002
 -1.1225850e-002
 -6.9166177e-003
 -6.9166177e-003
  5.3255712e-003
 -6.4334702e-003
 -7.1404874e-003
  5.1059933e-003
  5.1059933e-003
  6.2979678e-003
 -3.4742242e-003
 -7.1902502e-003
  2.3981710e-002
  2.3981710e-002
  3.1992958e-002
  1.4044870e-002
  5.2069146e-003
  9.3885214e-003
  9.3885214e-003
 -2.3981026e-003
 -3.1326081e-003
  1.4065997e-002
  1.1206178e-002
  1.1206178e-002
  6.3782903e-003
  5.5740094e-003
  8.7604663e-003
 -7.9967621e-003
 -7.9967621e-003
 -2.6607790e-002
 -2.4151050e-002
  2.3102824e-002
  2.6150563e-002
  2.6150563e-002
  1.4234692e-002
  2.8310002e-002
  5.4215873e-003
  1.1602068e-002
  1.1602068e-002
  2.7691405e-002
  2.7714550e-002
  2.4749601e-002
  2.1808798e-002
  2.1808798e-002
 -6.0055513e-003
 -2.3632523e-002
  1.7100106e-003
  1.4895186e-002
  1.4895186e-002
 -7.8797318e-003
 -4.5739458e-003
  2.0615590e-002
  1.9705734e-002
  1.9705734e-002
  3.3741953e-002
  2.7744948e-002
  2.0800876e-002
  2.0884942e-002
  2.0884942e-002
  3.6902816e-002
  5.4781036e-002
  3.5663543e-002
  3.6619957e-002
  3.6619957e-002
  5.7486125e-002
  4.1332053e-002
  1.0370832e-002
  2.3482878e-002
  2.3482878e-002
  3.4495847e-002
  3.5459299e-002
  5.8324283e-002
  5.4111683e-002
  5.4111683e-002
  3.3002054e-002
 -5.8616544e-003
 -2.4488644e-002
  2.7747350e-002
  2.7747350e-002
  3.9719904e-002
  1.7733222e-002
  2.5803520e-002
  2.7832253e-002
  2.7832253e-002
  3.1835978e-002
  3.9790217e-002
  4.2699271e-002
  4.5583805e-002
  4.5583805e-002
  4.6452114e-002
  5.4283782e-002
  5.6074866e-002
  6.0837820e-002
  6.0837820e-002
  5.7593243e-002
  4.0431285e-002
  3.7351609e-002
  3.7284241e-002
  3.7284241e-002
  5.5143109e-002
  6.1899842e-002
  6.3620399e-002
  6.7317221e-002
  6.7317221e-002
  5.4051849e-002
  5.7824131e-002
  6.9531507e-002
  5.7239784e-002
  5.7239784e-002
  4.4051368e-002
  5.2879815e-002
  7.6573495e-002
  9.2104286e-002
  9.2104286e-002
  9.1571171e-002
  9.0044050e-002
  9.0518807e-002
  1.0194219e-001
  1.0194219e-001
  1.0430621e-001
  1.0166847e-001
  9.6061750e-002
  8.2530986e-002
  8.2530986e-002
  9.1018523e-002
  1.1138502e-001
  1.1166373e-001
  1.1094106e-001
  1.1094106e-001
  8.4327614e-002
  6.7888483e-002
  1.2428297e-001
  1.4336429e-001
  1.4336429e-001
  1.2643276e-001
  1.2158676e-001
  1.1677678e-001
  1.2196172e-001
  1.2196172e-001
  1.3208015e-001
  1.3812827e-001
  1.4013914e-001
  1.3515796e-001
  1.3515796e-001
  1.3120931e-001
  1.4720702e-001
  1.3418819e-001
  1.2525531e-001
  1.2525531e-001
  1.3431790e-001
  1.2935961e-001
  1.3140920e-001
  1.4538882e-001
  1.4538882e-001
  1.5427009e-001
  1.4514763e-001
  1.3709111e-001
  1.3507158e-001
  1.3507158e-001
  1.4003565e-001
  1.5989327e-001
  1.6265308e-001
  1.6737694e-001
  1.6737694e-001
  1.9097898e-001
  1.7753344e-001
  1.6319618e-001
  1.5992581e-001
  1.5992581e-001
  1.2679988e-001
  1.2481373e-001
  1.5470872e-001
  1.5846076e-001
  1.5846076e-001
  1.4923020e-001
  1.5998831e-001
  1.5870237e-001
  1.4845860e-001
  1.4845860e-001
  1.6319128e-001
  1.4493330e-001
  1.3578293e-001
  1.5558408e-001
  1.5558408e-001
  1.7123455e-001
  1.6882509e-001
  1.6642969e-001
  1.7599913e-001
  1.7599913e-001
  1.8448852e-001
  1.7895964e-001
  1.5653956e-001
  1.6317869e-001
  1.6317869e-001
  1.5880305e-001
  1.3752742e-001
  1.3733502e-001
  1.4112309e-001
  1.4112309e-001
  1.4089173e-001
  1.4264922e-001
  1.3940790e-001
  1.3618825e-001
  1.3618825e-001
  1.3398611e-001
  1.3478502e-001
  1.4254402e-001
  1.4923871e-001
  1.4923871e-001
  1.5288574e-001
  1.5350989e-001
  1.5412357e-001
  1.5671862e-001
  1.5671862e-001
  1.5530333e-001
  1.4791871e-001
  1.4756054e-001
  1.5018778e-001
  1.5018778e-001
  1.4382505e-001
  1.3452150e-001
  1.2827687e-001
  1.2805408e-001
  1.2805408e-001
  1.2782847e-001
  1.2262053e-001
  1.1346707e-001
  1.1633510e-001
  1.1633510e-001
  1.0025322e-001
  8.6290862e-002
  1.0630008e-001
  1.0024823e-001
  1.0024823e-001
  9.9221585e-002
  1.1015042e-001
  1.1202262e-001
  1.1586712e-001
  1.1586712e-001
  1.0174956e-001
  1.1861656e-001
  1.3135758e-001
  1.0016977e-001
  1.0016977e-001
  8.2179828e-002
  7.3296834e-002
  6.9463008e-002
  6.0678154e-002
  6.0678154e-002
  4.8974846e-002
  5.0311793e-002
  5.5619197e-002
  5.8888991e-002
  5.8888991e-002
  5.2170490e-002
  3.5545576e-002
  3.5985195e-002
  5.1358006e-002
  5.1358006e-002
  4.9672479e-002
  3.5051747e-002
  3.4491451e-002
  5.7835690e-002
  5.7835690e-002
  5.6088953e-002
  4.6386798e-002
  4.4729044e-002
  3.5115516e-002
  3.5115516e-002
  2.4582902e-002
  2.2102200e-002
  1.2669104e-002
  1.4267038e-002
  1.4267038e-002
  1.7842624e-002
  1.1428728e-002
  2.1996634e-002
  2.1521843e-002
  2.1521843e-002
  1.2086458e-002
  4.7189941e-003
  7.3700201e-003
  8.0066923e-003
  8.0066923e-003
  1.5608590e-002
  1.5179955e-002
  1.8737300e-002
  1.4297070e-002
  1.4297070e-002
 -4.0506239e-003
  1.6591435e-002
  2.0133171e-002
 -3.2447633e-003
 -3.2447633e-003
 -1.5477156e-002
 -1.4662912e-002
 -2.0826799e-002
 -1.1005772e-002
 -1.1005772e-002
 -7.2407318e-003
 -1.5150621e-003
 -7.7876372e-003
 -3.1935574e-002
 -3.1935574e-002
 -4.4930710e-002
 -4.9851499e-002
 -2.6845713e-002
 -2.7929436e-002
 -2.7929436e-002
 -2.6016281e-002
 -3.6069366e-002
 -3.3092928e-002
 -2.7152627e-002
 -2.7152627e-002
 -3.7195064e-002
 -1.4289945e-002
 -3.1408383e-002
 -2.6476547e-002
 -2.6476547e-002
 -1.5609338e-002
 -2.6740951e-002
 -4.1764887e-002
 -4.5710261e-002
 -4.5710261e-002
 -4.4642935e-002
 -4.7567060e-002
 -2.8556403e-002
 -1.1692624e-002
 -1.1692624e-002
 -3.1815366e-002
 -4.3805891e-002
 -2.3828592e-002
 -3.0903820e-002
 -3.0903820e-002
 -3.4933047e-002
 -3.6936945e-002
 -3.2948387e-002
 -1.6045171e-002
 -1.6045171e-002
 -2.2679120e-003
 -1.2505492e-002
 -2.1663634e-002
 -1.8795916e-002
 -1.8795916e-002
 -3.0890152e-002
 -3.4917826e-002
 -4.2895595e-002
 -1.9934263e-002
 -1.9934263e-002
 -9.1114107e-003
 -1.6303581e-002
 -3.5189042e-003
 -3.3663070e-002
 -3.3663070e-002
 -5.7584807e-002
 -4.0477552e-002
 -4.0439735e-002
 -4.5380955e-002
 -4.5380955e-002
 -2.3391417e-002
 -1.5524089e-002
 -3.6602329e-002
 -4.4560820e-002
 -4.4560820e-002
 -3.2535231e-002
 -1.5627903e-002
  1.1100203e-002
  1.3707172e-002
  1.3707172e-002
 -3.0515662e-002
 -5.1470685e-002
 -2.7437540e-002
 -3.2481722e-002
 -3.2481722e-002
 -4.6447254e-002
 -3.8387712e-002
 -3.0393315e-002
 -3.7402355e-002
 -3.7402355e-002
 -5.3316506e-002
 -5.3164832e-002
 -4.8033626e-002
 -3.8959672e-002
 -3.8959672e-002
 -5.8840330e-002
 -7.2581572e-002
 -2.1474806e-002
 -5.6423011e-003
 -5.6423011e-003
 -2.4796192e-002
 -2.4870994e-002
 -2.9924379e-002
 -2.6968723e-002
 -2.6968723e-002
 -2.6028641e-002
 -2.6091781e-002
 -2.8145840e-002
 -2.0223625e-002
 -2.0223625e-002
 -1.3361907e-002
 -1.0539955e-002
 -2.1683872e-002
 -3.6720066e-002
 -3.6720066e-002
 -3.6694035e-002
 -3.7663384e-002
 -3.0656806e-002
 -3.9641432e-002
 -3.9641432e-002
 -3.1621396e-002
 -2.1674547e-002
 -1.5792391e-002
  7.5749934e-007
  7.5749934e-007
 -1.6204616e-002
 -2.3314303e-002
 -7.4597762e-003
  7.2689941e-003
  7.2689941e-003
 -6.0086837e-003
 -1.3202664e-002
 -1.8346058e-002
 -3.3406302e-002
 -3.3406302e-002
 -2.7428797e-002
 -2.8471046e-002
 -2.2532966e-002
 -2.5606286e-002
 -2.5606286e-002
 -3.1641803e-002
 -2.5676538e-002
 -1.9759651e-002
 -1.3890943e-002
 -1.3890943e-002
 -1.0062023e-002
 -1.5227670e-002
 -2.9314171e-002
 -2.5358717e-002
 -2.5358717e-002
 -1.6455694e-002
 -7.6253689e-003
  4.1202680e-003
 -2.2075065e-002
 -2.2075065e-002
 -6.8969929e-002
 -4.6762177e-002
  2.7052120e-002
  3.7519632e-002
  3.7519632e-002
  9.6470740e-005
 -1.3119499e-002
 -2.5231531e-002
 -5.7162223e-002
 -5.7162223e-002
 -6.1940991e-002
 -5.5724119e-002
 -3.5613997e-002
 -2.9610190e-002
 -2.9610190e-002
 -4.7556605e-002
 -4.6432963e-002
 -3.7350154e-002
 -2.3361263e-002
 -2.3361263e-002
 -2.5420845e-002
 -2.6467260e-002
 -2.2525137e-002
 -2.6582143e-002
 -2.6582143e-002
 -3.3593220e-002
 -3.5566751e-002
 -3.5531564e-002
 -4.3463117e-002
 -4.3463117e-002
 -5.4316488e-002
 -5.0141156e-002
 -4.6994586e-002
 -4.8852085e-002
 -4.8852085e-002
 -4.4717734e-002
 -3.1652946e-002
 -3.2636954e-002
 -4.2575345e-002
 -4.2575345e-002
 -3.2513367e-002
 -3.6475598e-002
 -3.2437363e-002
 -3.9386377e-002
 -3.9386377e-002
 -4.7273535e-002
 -2.8205598e-002
 -2.0247921e-002
 -3.1277165e-002
 -3.1277165e-002
 -3.6240133e-002
 -3.3194444e-002
 -4.7103269e-002
 -4.5958602e-002
 -4.5958602e-002
 -3.7850782e-002
 -3.2796044e-002
 -2.7781884e-002
 -3.4758979e-002
 -3.4758979e-002
 -3.9686404e-002
 -3.9593038e-002
 -4.1491255e-002
 -4.4368802e-002
 -4.4368802e-002
 -3.8258535e-002
 -2.6221851e-002
 -2.2250255e-002
 -5.3639638e-003
 -5.3639638e-003
 -1.5626264e-003
 -3.5636984e-002
 -3.4575258e-002
 -2.4558241e-002
 -2.4558241e-002
 -1.7610330e-002
 -9.7230490e-003
 -3.4765068e-002
 -5.8605597e-002
 -5.8605597e-002
 -5.9343772e-002
 -5.1111097e-002
 -4.7923839e-002
 -4.2769526e-002
 -4.2769526e-002
 -4.7615253e-002
 -8.0305364e-002
 -9.9779055e-002
 -4.4397688e-002
 -4.4397688e-002
  1.1528009e-002
  3.2579691e-003
 -1.5899784e-002
 -1.0003058e-002
 -1.0003058e-002
 -1.0129905e-002
 -3.2165532e-002
 -2.6134891e-002
 -3.0111987e-002
 -3.0111987e-002
 -3.7043537e-002
 -3.5950211e-002
 -3.7852593e-002
 -2.7787568e-002
 -2.7787568e-002
 -2.8759100e-002
 -3.4701499e-002
 -4.5573924e-002
 -3.3450395e-002
 -3.3450395e-002
 -1.2461977e-002
 -6.0811852e-004
 -1.7981490e-003
 -2.9786365e-003
 -2.9786365e-003
 -1.6100464e-002
 -4.7040983e-002
 -5.3825515e-002
 -4.1630841e-002
 -4.1630841e-002
 -4.8456878e-002
 -4.0287158e-002
 -2.6207686e-002
 -4.2119783e-002
 -4.2119783e-002
 -3.7982523e-002
 -1.9935383e-002
 -9.0066679e-003
 -1.4101679e-002
 -1.4101679e-002
 -2.1146585e-002
 -1.7178459e-002
 -1.7226028e-002
 -1.2293325e-002
 -1.2293325e-002
 -1.0388460e-002
 -9.4949364e-003
  5.3340426e-003
  6.0987414e-003
  6.0987414e-003
  5.8608688e-003
  1.2595859e-002
  2.4254668e-002
  2.8845803e-002
  2.8845803e-002
  2.6426892e-002
  2.5022555e-002
  2.7612253e-002
  3.2171437e-002
  3.2171437e-002
  2.5737098e-002
  3.3296926e-002
  2.8842753e-002
  1.9444276e-002
  1.9444276e-002
  8.1299438e-003
 -5.0842026e-003
 -5.2436313e-003
 -9.3854325e-003
 -9.3854325e-003
 -8.5137743e-003
 -9.6410003e-003
 -6.7753074e-003
 -1.3892089e-002
 -1.3892089e-002
 -1.5970934e-002
 -2.1020191e-002
 -2.5031790e-002
  1.2817975e-002
  1.2817975e-002
  1.4505096e-002
 -2.7444663e-003
  4.0485502e-003
  7.7979496e-003
  7.7979496e-003
  6.5366818e-003
  4.2893696e-003
  1.0641494e-003
 -1.0102202e-002
 -1.0102202e-002
  2.7245348e-003
  2.6401019e-002
  8.7621486e-005
 -3.9953535e-002
 -3.9953535e-002
 -3.1862839e-002
 -1.5870224e-002
 -1.5942518e-002
 -2.5972953e-002
 -2.5972953e-002
 -3.6916641e-002
 -3.8806709e-002
 -1.6778555e-002
 -1.3852326e-002
 -1.3852326e-002
 -1.1945680e-002
 -1.7025765e-002
 -3.7998422e-002
 -4.5851803e-002
 -4.5851803e-002
 -7.4553628e-002
 -7.1149579e-002
 -6.6775271e-002
 -7.9365045e-002
 -7.9365045e-002
 -8.0894474e-002
 -7.7429348e-002
 -7.1998325e-002
 -7.0593074e-002
 -7.0593074e-002
 -5.5254457e-002
 -5.7965819e-002
 -6.8620454e-002
 -7.0222695e-002
 -7.0222695e-002
 -6.5834202e-002
 -6.3471328e-002
 -5.7142161e-002
 -5.3850665e-002
 -5.3850665e-002
 -5.1580301e-002
 -3.4388334e-002
 -3.9245771e-002
 -7.4935308e-002
 -7.4935308e-002
 -9.2404384e-002
 -7.1883298e-002
 -8.4392496e-002
 -8.9825354e-002
 -8.9825354e-002
 -7.2305077e-002
 -8.2810998e-002
 -7.9285664e-002
 -6.6823423e-002
 -6.6823423e-002
 -7.3383057e-002
 -7.1919420e-002
 -6.4489961e-002
 -6.1102736e-002
 -6.1102736e-002
 -6.1724804e-002
 -6.3335649e-002
 -5.8955802e-002
 -5.8593421e-002
 -5.8593421e-002
 -5.4248437e-002
 -5.2924879e-002
 -4.7626758e-002
 -5.2329395e-002
 -5.2329395e-002
 -5.6991826e-002
 -5.4642893e-002
 -6.6253972e-002
 -7.0796557e-002
 -7.0796557e-002
 -7.2311894e-002
 -7.2816484e-002
 -6.8334952e-002
 -4.6957365e-002
 -4.6957365e-002
 -4.8658722e-002
 -6.7274852e-002
 -5.1875742e-002
 -4.7555675e-002
 -4.7555675e-002
 -5.3228306e-002
 -5.4869091e-002
 -5.3506839e-002
 -4.5182526e-002
 -4.5182526e-002
 -4.5887808e-002
 -5.1565219e-002
 -5.2214876e-002
 -5.5845087e-002
 -5.5845087e-002
 -7.1394493e-002
 -6.8888005e-002
 -6.1420070e-002
 -5.9986440e-002
 -5.9986440e-002
 -6.9517339e-002
 -7.7971954e-002
 -9.3326025e-002
 -1.2249395e-001
 -1.2249395e-001
 -1.3548468e-001
 -1.5334402e-001
 -1.7603155e-001
 -1.6765448e-001
 -1.6765448e-001
 -1.5336466e-001
 -1.6209210e-001
 -1.7771384e-001
 -1.8722624e-001
 -1.8722624e-001
 -1.8968301e-001
 -2.0505981e-001
 -2.0337335e-001
 -1.7878778e-001
 -1.7878778e-001
 -1.8228219e-001
 -1.9769243e-001
 -1.6317451e-001
 -1.4387152e-001
 -1.4387152e-001
 -1.6256548e-001
 -1.4624413e-001
 -1.2307958e-001
 -9.7112164e-002
 -9.7112164e-002
 -6.4382042e-002
 -1.2994751e-002
  2.4030628e-002
  4.3822560e-002
  4.3822560e-002
  9.0341041e-002
  1.3149707e-001
  1.7231263e-001
  2.3071538e-001
  2.3071538e-001
  2.8365378e-001
  3.3814202e-001
  3.7922703e-001
  3.9705795e-001
  3.9705795e-001
  4.1871366e-001
  4.3420311e-001
  4.3859662e-001
  4.3995197e-001
  4.3995197e-001
  4.4526525e-001
  4.3856941e-001
  4.2892596e-001
  4.5719136e-001
  4.5719136e-001
  4.5334141e-001
  4.2062649e-001
  3.9414028e-001
  3.2304163e-001
  3.2304163e-001
  2.7143547e-001
  2.5709042e-001
  2.2492758e-001
  2.0795852e-001
  2.0795852e-001
  1.9510463e-001
  1.8334496e-001
  1.9657264e-001
  2.0072218e-001
  2.0072218e-001
  2.0084718e-001
  1.8303787e-001
  1.5640458e-001
  1.3496300e-001
  1.3496300e-001
  1.1070415e-001
  1.0456585e-001
  9.8473875e-002
  8.1473109e-002
  8.1473109e-002
  5.2657395e-002
  3.2042366e-002
  2.8524797e-002
  1.3706150e-004
  1.3706150e-004
 -3.2998482e-002
 -3.7977081e-002
 -4.2914075e-002
 -4.3826020e-002
 -4.3826020e-002
 -4.1741694e-002
 -4.7640603e-002
 -8.4363060e-002
 -1.5065992e-001
 -1.5065992e-001
 -1.9350425e-001
 -2.1209045e-001
 -2.3948103e-001
 -2.8357029e-001
 -2.8357029e-001
 -2.9542093e-001
 -2.8127153e-001
 -3.1503198e-001
 -3.4850604e-001
 -3.4850604e-001
 -3.5480552e-001
 -3.7498439e-001
 -3.9199811e-001
 -4.1184738e-001
 -4.1184738e-001
 -4.2554518e-001
 -4.2218638e-001
 -4.4274255e-001
 -4.4618539e-001
 -4.4618539e-001
 -4.5655636e-001
 -4.7579023e-001
 -4.6099000e-001
 -4.6621319e-001
 -4.6621319e-001
 -4.8532046e-001
 -4.9628772e-001
 -5.0416064e-001
 -5.0796831e-001
 -5.0796831e-001
 -5.1073150e-001
 -5.1644225e-001
 -5.1312537e-001
 -4.9288750e-001
 -4.9288750e-001
 -4.8474884e-001
 -4.7367215e-001
 -4.3080056e-001
 -4.0917832e-001
 -4.0917832e-001
 -3.9070614e-001
 -3.4647762e-001
 -3.2849181e-001
 -3.1263302e-001
 -3.1263302e-001
 -2.8494173e-001
 -2.7838039e-001
 -2.6289935e-001
 -2.4952696e-001
 -2.4952696e-001
 -2.2529966e-001
 -1.9827422e-001
 -1.8440886e-001
 -1.7463332e-001
 -1.7463332e-001
 -1.6293904e-001
 -1.3838714e-001
 -1.4390741e-001
 -1.2746681e-001
 -1.2746681e-001
 -1.1115529e-001
 -1.1489042e-001
 -1.0863105e-001
 -1.0540585e-001
 -1.0540585e-001
 -8.9255633e-002
 -6.9249750e-002
 -6.5338460e-002
 -4.9504997e-002
 -4.9504997e-002
 -2.8818686e-002
 -3.4192907e-002
 -4.8484047e-002
 -6.2655587e-002
 -6.2655587e-002
 -3.0896450e-002
 -3.0267804e-002
 -2.4662616e-002
 -9.1422380e-003
 -9.1422380e-003
 -1.2669461e-002
 -2.3137591e-002
 -3.7501814e-002
 -1.6889547e-002
 -1.6889547e-002
 -2.7317083e-002
 -2.6702337e-002
 -1.5135607e-002
 -1.8600315e-002
 -1.8600315e-002
 -8.0922404e-003
  3.3272803e-003
  4.6954726e-003
  3.0657952e-003
  3.0657952e-003
  4.4382360e-003
  6.7963983e-003
 -1.0781833e-002
 -1.2280338e-002
 -1.2280338e-002
 -4.8018536e-003
 -1.6305326e-002
  9.1354323e-003
  8.4755882e-003
  8.4755882e-003
 -1.9067347e-002
 -1.8497952e-002
 -8.9682532e-003
 -1.2461708e-002
 -1.2461708e-002
 -2.0904493e-002
 -2.2305012e-002
 -1.7716694e-002
  3.7662858e-003
  3.7662858e-003
  2.1091105e-002
  2.0348526e-002
  1.2641230e-002
  4.9977432e-003
  4.9977432e-003
  1.5344069e-002
  2.3614704e-002
  1.7875498e-002
  9.1961255e-003
  9.1961255e-003
 -4.0727711e-004
  4.0117245e-003
  1.0387495e-002
  2.7693623e-003
  2.7693623e-003
  4.1777810e-003
  5.5757720e-003
  9.8795227e-004
  1.6356913e-002
  1.6356913e-002
  1.6662345e-002
  1.1986434e-002
  1.9300424e-002
  2.6535114e-003
  2.6535114e-003
  5.0660132e-003
  2.6382024e-002
  1.9638804e-002
  1.4943095e-002
  1.4943095e-002
  1.9249642e-002
  1.9537952e-002
  2.2812192e-002
  1.9088803e-002
  1.9088803e-002
  1.6392351e-002
  1.7702241e-002
  1.4022541e-002
  1.6349110e-002
  1.6349110e-002
  2.1645051e-002
  1.9926874e-002
  1.4239693e-002
  1.6566993e-002
  1.6566993e-002
  1.2900519e-002
  2.4203377e-002
  3.7406053e-002
  2.9586785e-002
  2.9586785e-002
  2.0835778e-002
  2.3111789e-002
  3.8316393e-002
  3.2482652e-002
  3.2482652e-002
  2.3709032e-002
  3.3929743e-002
  3.8091556e-002
  2.9272539e-002
  2.9272539e-002
  3.5464420e-002
  5.0568841e-002
  4.4635315e-002
  2.7795078e-002
  2.7795078e-002
  2.6031360e-002
  3.0257824e-002
  3.6441739e-002
  4.0583276e-002
  4.0583276e-002
  1.7801401e-002
  3.0063026e-002
  5.3179544e-002
  5.0212991e-002
  5.0212991e-002
  5.9221054e-002
  5.0228415e-002
  4.9276040e-002
  6.1277740e-002
  6.1277740e-002
  4.5295148e-002
  5.6332295e-002
  7.8233440e-002
  6.2109741e-002
  6.2109741e-002
  5.4084189e-002
  5.3094937e-002
  6.3068102e-002
  7.0966972e-002
  7.0966972e-002
  6.6849200e-002
  6.7743528e-002
  6.6637618e-002
  7.1515086e-002
  7.1515086e-002
  6.9380098e-002
  7.6224511e-002
  7.9027931e-002
  8.4794621e-002
  8.4794621e-002
  8.9516542e-002
  9.8181590e-002
  1.0478181e-001
  9.0411673e-002
  9.0411673e-002
  1.0304649e-001
  1.1258794e-001
  1.0312652e-001
  9.0752356e-002
  9.0752356e-002
  1.0935040e-001
  1.2779380e-001
  1.1122654e-001
  9.8775657e-002
  9.8775657e-002
  9.0407916e-002
  9.2065625e-002
  1.0565856e-001
  1.2212556e-001
  1.2212556e-001
  1.2252038e-001
  1.3286790e-001
  1.3814784e-001
  1.3640964e-001
  1.3640964e-001
  1.3169433e-001
  1.2402641e-001
  1.4529918e-001
  1.5444326e-001
  1.5444326e-001
  1.4956568e-001
  1.4472388e-001
  1.3593410e-001
  1.3318796e-001
  1.3318796e-001
  1.3842792e-001
  1.6752296e-001
  1.7247369e-001
  1.5646504e-001
  1.5646504e-001
  1.5552142e-001
  1.6454016e-001
  1.6451734e-001
  1.8142036e-001
  1.8142036e-001
  1.6929868e-001
  1.5229169e-001
  1.6629242e-001
  1.7419844e-001
  1.7419844e-001
  1.8004291e-001
  1.7985887e-001
  1.7867511e-001
  1.7450803e-001
  1.7450803e-001
  1.8331660e-001
  1.8607225e-001
  1.7884076e-001
  1.7166304e-001
  1.7166304e-001
  1.7449791e-001
  1.8527160e-001
  1.7204991e-001
  1.7287378e-001
  1.7287378e-001
  1.7667342e-001
  1.7545710e-001
  1.7225359e-001
  1.7703826e-001
  1.7703826e-001
  1.7779478e-001
  1.7356014e-001
  1.7533022e-001
  1.6811730e-001
  1.6811730e-001
  1.8485986e-001
  1.8552534e-001
  1.8319188e-001
  1.8585130e-001
  1.8585130e-001
  1.5661423e-001
  1.8139014e-001
  2.0496189e-001
  1.8451465e-001
  1.8451465e-001
  1.7319187e-001
  1.7291114e-001
  1.7262724e-001
  1.5341800e-001
  1.5341800e-001
  1.5527494e-001
  1.7105444e-001
  1.7375271e-001
  1.6546840e-001
  1.6546840e-001
  1.5027520e-001
  1.5412358e-001
  1.6689869e-001
  1.7358853e-001
  1.7358853e-001
  1.5631636e-001
  1.5611070e-001
  1.6984431e-001
  1.4959937e-001
  1.4959937e-001
  1.4047002e-001
  1.4535337e-001
  1.4222481e-001
  1.3812127e-001
  1.3812127e-001
  1.2607951e-001
  1.3205832e-001
  1.2603306e-001
  1.1606927e-001
  1.1606927e-001
  1.0219950e-001
  1.1134553e-001
  1.3535164e-001
  1.0537816e-001
  1.0537816e-001
  7.6642134e-002
  8.8970536e-002
  9.8207452e-002
  9.5414706e-002
  9.5414706e-002
  1.0957194e-001
  1.0269576e-001
  9.1888707e-002
  9.9093156e-002
  9.9093156e-002
  9.1296778e-002
  8.8540544e-002
  8.3812007e-002
  7.9119250e-002
  7.9119250e-002
  8.0437553e-002
  7.1783261e-002
  6.2201326e-002
  4.7716032e-002
  4.7716032e-002
  4.6294217e-002
  7.1771772e-002
  7.6124535e-002
  6.3508680e-002
  6.3508680e-002
  5.9956854e-002
  5.8423738e-002
  6.1880585e-002
  5.9331537e-002
  5.9331537e-002
  5.1821680e-002
  5.1342665e-002
  5.0865695e-002
  4.9394860e-002
  4.9394860e-002
  4.8930139e-002
  5.9422354e-002
  5.4888070e-002
  3.9433903e-002
  3.9433903e-002
  4.7010372e-002
  3.7592777e-002
  2.7254829e-002
  3.7914279e-002
  3.7914279e-002
  3.1554754e-002
  1.4291030e-002
  1.0114524e-002
  1.2942955e-002
  1.2942955e-002
  7.7803986e-003
  1.6636861e-003
  4.5598602e-003
  1.8386943e-002
  1.8386943e-002
  1.7161604e-002
  3.5863578e-002
  3.0509549e-002
  1.7230830e-002
  1.7230830e-002
  1.8998441e-002
 -9.1263632e-003
 -8.1399254e-003
 -2.0108242e-002
 -2.0108242e-002
 -1.8035595e-002
  8.9180919e-003
  7.9426959e-004
 -2.3197834e-002
 -2.3197834e-002
 -3.5042373e-002
 -2.6871034e-002
 -7.8108693e-003
 -5.8368448e-003
 -5.8368448e-003
 -1.0850298e-002
 -7.8553752e-003
 -1.3848016e-002
 -1.6803693e-002
 -1.6803693e-002
 -2.2722558e-002
 -1.9629341e-002
 -1.4569150e-002
 -2.6480408e-002
 -2.6480408e-002
 -2.3355038e-002
 -1.3283311e-002
 -8.2731991e-003
 -2.6209755e-002
 -2.6209755e-002
 -3.8023561e-002
 -1.6874876e-002
 -1.9800414e-002
 -2.9672887e-002
 -2.9672887e-002
 -2.7512996e-002
 -2.9353643e-002
 -2.5203020e-002
 -1.1126634e-002
 -1.1126634e-002
 -1.4095507e-002
 -2.1023432e-002
 -1.8931059e-002
 -1.6855339e-002
 -1.6855339e-002
 -1.6788010e-002
  7.1808418e-003
  1.0039332e-002
 -2.1982696e-002
 -2.1982696e-002
 -2.5857056e-002
 -1.4760495e-002
 -1.8692894e-002
 -5.0477996e-002
 -5.0477996e-002
 -4.2165560e-002
 -1.3005862e-002
 -1.4957315e-002
 -4.2785975e-002
 -4.2785975e-002
 -6.9389940e-002
 -5.9921695e-002
 -4.8537200e-002
 -4.2223823e-002
 -4.2223823e-002
 -4.6915736e-002
 -4.2604727e-002
 -3.7331773e-002
 -3.2100816e-002
 -3.2100816e-002
 -2.7907590e-002
 -2.3747845e-002
 -1.2650120e-002
 -8.6141610e-003
 -8.6141610e-003
 -2.3533212e-002
 -3.7333726e-002
 -3.5085825e-002
 -3.7834770e-002
 -3.7834770e-002
 -4.1555997e-002
 -3.7278297e-002
 -3.9009858e-002
 -4.1721972e-002
 -4.1721972e-002
 -4.6402431e-002
 -4.9051367e-002
 -4.6697586e-002
 -5.7308332e-002
 -5.7308332e-002
 -3.6957485e-002
 -1.2788261e-002
 -1.9689316e-002
 -2.1553862e-002
 -2.1553862e-002
 -1.7427108e-002
 -4.3704627e-003
 -1.2334485e-002
 -1.4257645e-002
 -1.4257645e-002
 -1.3176980e-002
 -2.2063829e-002
 -8.9674839e-003
 -1.1912453e-002
 -1.1912453e-002
 -1.2841220e-002
 -3.2684216e-002
 -3.3441792e-002
 -3.3140355e-004
 -3.3140355e-004
 -1.9278777e-002
 -1.9148500e-002
  3.8870659e-003
  2.8324037e-003
  2.8324037e-003
 -1.5144169e-002
 -2.4010202e-002
 -1.7864460e-002
  1.2133252e-002
  1.2133252e-002
  2.0971253e-002
 -8.1081219e-003
 -2.0019189e-002
 -1.9551644e-003
 -1.9551644e-003
  1.0226104e-003
 -2.3909372e-002
 -2.7722807e-002
 -3.0508301e-002
 -3.0508301e-002
 -3.0282354e-002
 -2.4081881e-002
 -2.4902684e-002
 -2.6711907e-002
 -2.6711907e-002
 -2.3525982e-002
 -1.9369471e-002
 -2.0225867e-002
 -2.7050061e-002
 -2.7050061e-002
 -2.7842185e-002
 -1.5680202e-002
 -1.4572118e-002
 -1.9448075e-002
 -1.9448075e-002
 -2.0299948e-002
 -1.8156511e-002
 -1.4038226e-002
 -8.9572806e-003
 -8.9572806e-003
 -1.2880752e-002
 -1.5775853e-002
 -7.6918551e-003
 -1.1624578e-002
 -1.1624578e-002
 -1.6520701e-002
 -1.6396761e-002
 -1.8265130e-002
 -2.3105359e-002
 -2.3105359e-002
 -1.8942142e-002
 -1.9791879e-002
 -2.3621748e-002
 -1.7460506e-002
 -1.7460506e-002
 -1.4336792e-002
 -1.8209489e-002
 -2.1054037e-002
 -1.1923803e-002
 -1.1923803e-002
 -1.8719367e-003
  2.6024054e-002
  1.8834444e-002
 -1.6182349e-002
 -1.6182349e-002
 -3.2986070e-002
 -3.6704578e-002
 -2.8440631e-002
 -4.3088548e-003
 -4.3088548e-003
 -6.2677461e-003
 -3.4103928e-002
 -9.9244063e-003
 -3.9721055e-002
 -3.9721055e-002
 -5.7321930e-002
  1.9075956e-003
 -1.0932291e-003
 -2.5979373e-002
 -2.5979373e-002
 -1.6800463e-002
 -7.6960401e-003
 -2.5555200e-002
 -1.8369901e-002
 -1.8369901e-002
 -1.8214058e-002
 -1.4075265e-002
  1.0944141e-002
  8.8692270e-003
  8.8692270e-003
 -1.7090711e-002
 -3.1882892e-002
 -2.0659567e-002
 -2.2474054e-002
 -2.2474054e-002
 -3.4231983e-002
 -2.4978649e-002
 -1.5800119e-002
 -3.6573202e-002
 -3.6573202e-002
 -3.6261230e-002
 -2.3003828e-002
 -1.9813062e-002
 -8.6804686e-003
 -8.6804686e-003
 -2.5523885e-002
 -3.1273774e-002
 -2.8012445e-002
 -2.4776814e-002
 -2.4776814e-002
 -8.6200285e-003
 -6.5376698e-003
 -4.4720863e-003
 -7.4027282e-003
 -7.4027282e-003
 -2.3255879e-002
 -2.3044145e-002
 -9.8865864e-003
 -2.0737923e-002
 -2.0737923e-002
 -1.6561254e-002
 -1.7397657e-002
 -3.2169250e-002
 -2.6900880e-002
 -2.6900880e-002
 -2.7650058e-002
 -3.1379849e-002
 -3.2090334e-002
 -3.7773401e-002
 -3.7773401e-002
 -4.3408684e-002
 -2.9078306e-002
 -1.6855863e-002
 -1.5687662e-002
 -1.5687662e-002
 -2.6479268e-002
 -4.2161210e-002
  4.8958027e-005
  4.0918188e-002
